   2.7343750e-02   3.1250000e-02   3.5156250e-02   3.9062500e-02   4.2968750e-02   4.6875000e-02   5.0781250e-02   5.4687500e-02   5.8593750e-02   6.2500000e-02   6.6406250e-02   7.0312500e-02   7.4218750e-02   7.8125000e-02   8.2031250e-02   8.5937500e-02   8.9843750e-02   9.3750000e-02   9.7656250e-02   1.0156250e-01   1.0546875e-01   1.0937500e-01   1.1328125e-01   1.1718750e-01   1.2109375e-01   1.2500000e-01   1.2890625e-01   1.3281250e-01   1.3671875e-01   1.4062500e-01   1.4453125e-01   1.4843750e-01   1.5234375e-01   1.5625000e-01   1.6015625e-01   1.6406250e-01   1.6796875e-01   1.7187500e-01   1.7578125e-01   1.7968750e-01   1.8359375e-01   1.8750000e-01   1.9140625e-01   1.9531250e-01   1.9921875e-01   2.0312500e-01   2.0703125e-01   2.1093750e-01   2.1484375e-01   2.1875000e-01   2.2265625e-01   2.2656250e-01   2.3046875e-01   2.3437500e-01   2.3828125e-01   2.4218750e-01   2.4609375e-01   2.5000000e-01   2.5390625e-01   2.5781250e-01   2.6171875e-01   2.6562500e-01   2.6953125e-01   2.7343750e-01   2.7734375e-01   2.8125000e-01   2.8515625e-01   2.8906250e-01   2.9296875e-01   2.9687500e-01   3.0078125e-01   3.0468750e-01   3.0859375e-01   3.1250000e-01   3.1640625e-01   3.2031250e-01   3.2421875e-01   3.2812500e-01   3.3203125e-01   3.3593750e-01   3.3984375e-01   3.4375000e-01   3.4765625e-01   3.5156250e-01   3.5546875e-01   3.5937500e-01   3.6328125e-01   3.6718750e-01   3.7109375e-01   3.7500000e-01   3.7890625e-01   3.8281250e-01   3.8671875e-01   3.9062500e-01   3.9453125e-01   3.9843750e-01   4.0234375e-01   4.0625000e-01   4.1015625e-01   4.1406250e-01   4.1796875e-01   4.2187500e-01   4.2578125e-01   4.2968750e-01   4.3359375e-01   4.3750000e-01   4.4140625e-01   4.4531250e-01   4.4921875e-01   4.5312500e-01   4.5703125e-01   4.6093750e-01   4.6484375e-01   4.6875000e-01   4.7265625e-01   4.7656250e-01   4.8046875e-01   4.8437500e-01   4.8828125e-01   4.9218750e-01   4.9609375e-01   5.0000000e-01   5.0390625e-01   5.0781250e-01   5.1171875e-01   5.1562500e-01   5.1953125e-01   5.2343750e-01   5.2734375e-01   5.3125000e-01   5.3515625e-01   5.3906250e-01   5.4296875e-01   5.4687500e-01   5.5078125e-01   5.5468750e-01   5.5859375e-01   5.6250000e-01   5.6640625e-01   5.7031250e-01   5.7421875e-01   5.7812500e-01   5.8203125e-01   5.8593750e-01   5.8984375e-01   5.9375000e-01   5.9765625e-01   6.0156250e-01   6.0546875e-01   6.0937500e-01   6.1328125e-01   6.1718750e-01   6.2109375e-01   6.2500000e-01   6.2890625e-01   6.3281250e-01   6.3671875e-01   6.4062500e-01   6.4453125e-01   6.4843750e-01   6.5234375e-01   6.5625000e-01   6.6015625e-01   6.6406250e-01   6.6796875e-01   6.7187500e-01   6.7578125e-01   6.7968750e-01   6.8359375e-01   6.8750000e-01   6.9140625e-01   6.9531250e-01   6.9921875e-01   7.0312500e-01   7.0703125e-01   7.1093750e-01   7.1484375e-01   7.1875000e-01   7.2265625e-01   7.2656250e-01   7.3046875e-01   7.3437500e-01   7.3828125e-01   7.4218750e-01   7.4609375e-01   7.5000000e-01   7.5390625e-01   7.5781250e-01   7.6171875e-01   7.6562500e-01   7.6953125e-01   7.7343750e-01   7.7734375e-01   7.8125000e-01   7.8515625e-01   7.8906250e-01   7.9296875e-01   7.9687500e-01   8.0078125e-01   8.0468750e-01   8.0859375e-01   8.1250000e-01   8.1640625e-01   8.2031250e-01   8.2421875e-01   8.2812500e-01   8.3203125e-01   8.3593750e-01   8.3984375e-01   8.4375000e-01   8.4765625e-01   8.5156250e-01   8.5546875e-01   8.5937500e-01   8.6328125e-01   8.6718750e-01   8.7109375e-01   8.7500000e-01   8.7890625e-01   8.8281250e-01   8.8671875e-01   8.9062500e-01   8.9453125e-01   8.9843750e-01   9.0234375e-01   9.0625000e-01   9.1015625e-01   9.1406250e-01   9.1796875e-01   9.2187500e-01   9.2578125e-01   9.2968750e-01   9.3359375e-01   9.3750000e-01   9.4140625e-01   9.4531250e-01   9.4921875e-01   9.5312500e-01   9.5703125e-01   9.6093750e-01   9.6484375e-01   9.6875000e-01   9.7265625e-01   9.7656250e-01   9.8046875e-01   9.8437500e-01   9.8828125e-01   9.9218750e-01   9.9609375e-01   1.0000000e+00   1.0039063e+00   1.0078125e+00   1.0117188e+00   1.0156250e+00   1.0195313e+00   1.0234375e+00   1.0273438e+00   1.0312500e+00   1.0351563e+00   1.0390625e+00   1.0429688e+00   1.0468750e+00   1.0507813e+00   1.0546875e+00   1.0585938e+00   1.0625000e+00   1.0664063e+00   1.0703125e+00   1.0742188e+00   1.0781250e+00   1.0820313e+00   1.0859375e+00   1.0898438e+00   1.0937500e+00   1.0976563e+00   1.1015625e+00   1.1054688e+00   1.1093750e+00   1.1132813e+00   1.1171875e+00   1.1210938e+00   1.1250000e+00   1.1289063e+00   1.1328125e+00   1.1367188e+00   1.1406250e+00   1.1445313e+00   1.1484375e+00   1.1523438e+00   1.1562500e+00   1.1601563e+00   1.1640625e+00   1.1679688e+00   1.1718750e+00   1.1757813e+00   1.1796875e+00   1.1835938e+00   1.1875000e+00   1.1914063e+00   1.1953125e+00   1.1992188e+00   1.2031250e+00   1.2070313e+00   1.2109375e+00   1.2148438e+00   1.2187500e+00   1.2226563e+00   1.2265625e+00   1.2304688e+00   1.2343750e+00   1.2382813e+00   1.2421875e+00   1.2460938e+00   1.2500000e+00   1.2539063e+00   1.2578125e+00   1.2617188e+00   1.2656250e+00   1.2695313e+00   1.2734375e+00   1.2773438e+00   1.2812500e+00   1.2851563e+00   1.2890625e+00   1.2929688e+00   1.2968750e+00   1.3007813e+00   1.3046875e+00   1.3085938e+00   1.3125000e+00   1.3164063e+00   1.3203125e+00   1.3242188e+00   1.3281250e+00   1.3320313e+00   1.3359375e+00   1.3398438e+00   1.3437500e+00   1.3476563e+00   1.3515625e+00   1.3554688e+00   1.3593750e+00   1.3632813e+00   1.3671875e+00   1.3710938e+00   1.3750000e+00   1.3789063e+00   1.3828125e+00   1.3867188e+00   1.3906250e+00   1.3945313e+00   1.3984375e+00   1.4023438e+00   1.4062500e+00   1.4101563e+00   1.4140625e+00   1.4179688e+00   1.4218750e+00   1.4257813e+00   1.4296875e+00   1.4335938e+00   1.4375000e+00   1.4414063e+00   1.4453125e+00   1.4492188e+00   1.4531250e+00   1.4570313e+00   1.4609375e+00   1.4648438e+00   1.4687500e+00   1.4726563e+00   1.4765625e+00   1.4804688e+00   1.4843750e+00   1.4882813e+00   1.4921875e+00   1.4960938e+00   1.5000000e+00   1.5039063e+00   1.5078125e+00   1.5117188e+00   1.5156250e+00   1.5195313e+00   1.5234375e+00   1.5273438e+00   1.5312500e+00   1.5351563e+00   1.5390625e+00   1.5429688e+00   1.5468750e+00   1.5507813e+00   1.5546875e+00   1.5585938e+00   1.5625000e+00   1.5664063e+00   1.5703125e+00   1.5742188e+00   1.5781250e+00   1.5820313e+00   1.5859375e+00   1.5898438e+00   1.5937500e+00   1.5976563e+00   1.6015625e+00   1.6054688e+00   1.6093750e+00   1.6132813e+00   1.6171875e+00   1.6210938e+00   1.6250000e+00   1.6289063e+00   1.6328125e+00   1.6367188e+00   1.6406250e+00   1.6445313e+00   1.6484375e+00   1.6523438e+00   1.6562500e+00   1.6601563e+00   1.6640625e+00   1.6679688e+00   1.6718750e+00   1.6757813e+00   1.6796875e+00   1.6835938e+00   1.6875000e+00   1.6914063e+00   1.6953125e+00   1.6992188e+00   1.7031250e+00   1.7070313e+00   1.7109375e+00   1.7148438e+00   1.7187500e+00   1.7226563e+00   1.7265625e+00   1.7304688e+00   1.7343750e+00   1.7382813e+00   1.7421875e+00   1.7460938e+00   1.7500000e+00   1.7539063e+00   1.7578125e+00   1.7617188e+00   1.7656250e+00   1.7695313e+00   1.7734375e+00   1.7773438e+00   1.7812500e+00   1.7851563e+00   1.7890625e+00   1.7929688e+00   1.7968750e+00   1.8007813e+00   1.8046875e+00   1.8085938e+00   1.8125000e+00   1.8164063e+00   1.8203125e+00   1.8242188e+00   1.8281250e+00   1.8320313e+00   1.8359375e+00   1.8398438e+00   1.8437500e+00   1.8476563e+00   1.8515625e+00   1.8554688e+00   1.8593750e+00   1.8632813e+00   1.8671875e+00   1.8710938e+00   1.8750000e+00   1.8789063e+00   1.8828125e+00   1.8867188e+00   1.8906250e+00   1.8945313e+00   1.8984375e+00   1.9023438e+00   1.9062500e+00   1.9101563e+00   1.9140625e+00   1.9179688e+00   1.9218750e+00   1.9257813e+00   1.9296875e+00   1.9335938e+00   1.9375000e+00   1.9414063e+00   1.9453125e+00   1.9492188e+00   1.9531250e+00   1.9570313e+00   1.9609375e+00   1.9648438e+00   1.9687500e+00   1.9726563e+00   1.9765625e+00   1.9804688e+00   1.9843750e+00   1.9882813e+00   1.9921875e+00   1.9960938e+00   2.0000000e+00   2.0039063e+00   2.0078125e+00   2.0117188e+00   2.0156250e+00   2.0195313e+00   2.0234375e+00   2.0273438e+00   2.0312500e+00   2.0351563e+00   2.0390625e+00   2.0429688e+00   2.0468750e+00   2.0507813e+00   2.0546875e+00   2.0585938e+00   2.0625000e+00   2.0664063e+00   2.0703125e+00   2.0742188e+00   2.0781250e+00   2.0820313e+00   2.0859375e+00   2.0898438e+00   2.0937500e+00   2.0976563e+00   2.1015625e+00   2.1054688e+00   2.1093750e+00   2.1132813e+00   2.1171875e+00   2.1210938e+00   2.1250000e+00   2.1289063e+00   2.1328125e+00   2.1367188e+00   2.1406250e+00   2.1445313e+00   2.1484375e+00   2.1523438e+00   2.1562500e+00   2.1601563e+00   2.1640625e+00   2.1679688e+00   2.1718750e+00   2.1757813e+00   2.1796875e+00   2.1835938e+00   2.1875000e+00   2.1914063e+00   2.1953125e+00   2.1992188e+00   2.2031250e+00   2.2070313e+00   2.2109375e+00   2.2148438e+00   2.2187500e+00   2.2226563e+00   2.2265625e+00   2.2304688e+00   2.2343750e+00   2.2382813e+00   2.2421875e+00   2.2460938e+00   2.2500000e+00   2.2539063e+00   2.2578125e+00   2.2617188e+00   2.2656250e+00   2.2695313e+00   2.2734375e+00   2.2773438e+00   2.2812500e+00   2.2851563e+00   2.2890625e+00   2.2929688e+00   2.2968750e+00   2.3007813e+00   2.3046875e+00   2.3085938e+00   2.3125000e+00   2.3164063e+00   2.3203125e+00   2.3242188e+00   2.3281250e+00   2.3320313e+00   2.3359375e+00   2.3398438e+00   2.3437500e+00   2.3476563e+00   2.3515625e+00   2.3554688e+00   2.3593750e+00   2.3632813e+00   2.3671875e+00   2.3710938e+00   2.3750000e+00   2.3789063e+00   2.3828125e+00   2.3867188e+00   2.3906250e+00   2.3945313e+00   2.3984375e+00   2.4023438e+00   2.4062500e+00   2.4101563e+00   2.4140625e+00   2.4179688e+00   2.4218750e+00   2.4257813e+00   2.4296875e+00   2.4335938e+00   2.4375000e+00   2.4414063e+00   2.4453125e+00   2.4492188e+00   2.4531250e+00   2.4570313e+00   2.4609375e+00   2.4648438e+00   2.4687500e+00   2.4726563e+00   2.4765625e+00   2.4804688e+00   2.4843750e+00   2.4882813e+00   2.4921875e+00   2.4960938e+00   2.5000000e+00   2.5039063e+00   2.5078125e+00   2.5117188e+00   2.5156250e+00   2.5195313e+00   2.5234375e+00   2.5273438e+00   2.5312500e+00   2.5351563e+00   2.5390625e+00   2.5429688e+00   2.5468750e+00   2.5507813e+00   2.5546875e+00   2.5585938e+00   2.5625000e+00   2.5664063e+00   2.5703125e+00   2.5742188e+00   2.5781250e+00   2.5820313e+00   2.5859375e+00   2.5898438e+00   2.5937500e+00   2.5976563e+00   2.6015625e+00   2.6054688e+00   2.6093750e+00   2.6132813e+00   2.6171875e+00   2.6210938e+00   2.6250000e+00   2.6289063e+00   2.6328125e+00   2.6367188e+00   2.6406250e+00   2.6445313e+00   2.6484375e+00   2.6523438e+00   2.6562500e+00   2.6601563e+00   2.6640625e+00   2.6679688e+00   2.6718750e+00   2.6757813e+00   2.6796875e+00   2.6835938e+00   2.6875000e+00   2.6914063e+00   2.6953125e+00   2.6992188e+00   2.7031250e+00   2.7070313e+00   2.7109375e+00   2.7148438e+00   2.7187500e+00   2.7226563e+00   2.7265625e+00   2.7304688e+00   2.7343750e+00   2.7382813e+00   2.7421875e+00   2.7460938e+00   2.7500000e+00   2.7539063e+00   2.7578125e+00   2.7617188e+00   2.7656250e+00   2.7695313e+00   2.7734375e+00   2.7773438e+00   2.7812500e+00   2.7851563e+00   2.7890625e+00   2.7929688e+00   2.7968750e+00   2.8007813e+00   2.8046875e+00   2.8085938e+00   2.8125000e+00   2.8164063e+00   2.8203125e+00   2.8242188e+00   2.8281250e+00   2.8320313e+00   2.8359375e+00   2.8398438e+00   2.8437500e+00   2.8476563e+00   2.8515625e+00   2.8554688e+00   2.8593750e+00   2.8632813e+00   2.8671875e+00   2.8710938e+00   2.8750000e+00   2.8789063e+00   2.8828125e+00   2.8867188e+00   2.8906250e+00   2.8945313e+00   2.8984375e+00   2.9023438e+00   2.9062500e+00   2.9101563e+00   2.9140625e+00   2.9179688e+00   2.9218750e+00   2.9257813e+00   2.9296875e+00   2.9335938e+00   2.9375000e+00   2.9414063e+00   2.9453125e+00   2.9492188e+00   2.9531250e+00   2.9570313e+00   2.9609375e+00   2.9648438e+00   2.9687500e+00   2.9726563e+00   2.9765625e+00   2.9804688e+00   2.9843750e+00   2.9882813e+00   2.9921875e+00   2.9960938e+00   3.0000000e+00   3.0039063e+00   3.0078125e+00   3.0117188e+00   3.0156250e+00   3.0195313e+00   3.0234375e+00   3.0273438e+00   3.0312500e+00   3.0351563e+00   3.0390625e+00   3.0429688e+00   3.0468750e+00   3.0507813e+00   3.0546875e+00   3.0585938e+00   3.0625000e+00   3.0664063e+00   3.0703125e+00   3.0742188e+00   3.0781250e+00   3.0820313e+00   3.0859375e+00   3.0898438e+00   3.0937500e+00   3.0976563e+00   3.1015625e+00   3.1054688e+00   3.1093750e+00   3.1132813e+00   3.1171875e+00   3.1210938e+00   3.1250000e+00   3.1289063e+00   3.1328125e+00   3.1367188e+00   3.1406250e+00   3.1445313e+00   3.1484375e+00   3.1523438e+00   3.1562500e+00   3.1601563e+00   3.1640625e+00   3.1679688e+00   3.1718750e+00   3.1757813e+00   3.1796875e+00   3.1835938e+00   3.1875000e+00   3.1914063e+00   3.1953125e+00   3.1992188e+00   3.2031250e+00   3.2070313e+00   3.2109375e+00   3.2148438e+00   3.2187500e+00   3.2226563e+00   3.2265625e+00   3.2304688e+00   3.2343750e+00   3.2382813e+00   3.2421875e+00   3.2460938e+00   3.2500000e+00   3.2539063e+00   3.2578125e+00   3.2617188e+00   3.2656250e+00   3.2695313e+00   3.2734375e+00   3.2773438e+00   3.2812500e+00   3.2851563e+00   3.2890625e+00   3.2929688e+00   3.2968750e+00   3.3007813e+00   3.3046875e+00   3.3085938e+00   3.3125000e+00   3.3164063e+00   3.3203125e+00   3.3242188e+00   3.3281250e+00   3.3320313e+00   3.3359375e+00   3.3398438e+00   3.3437500e+00   3.3476563e+00   3.3515625e+00   3.3554688e+00   3.3593750e+00   3.3632813e+00   3.3671875e+00   3.3710938e+00   3.3750000e+00   3.3789063e+00   3.3828125e+00   3.3867188e+00   3.3906250e+00   3.3945313e+00   3.3984375e+00   3.4023438e+00   3.4062500e+00   3.4101563e+00   3.4140625e+00   3.4179688e+00   3.4218750e+00   3.4257813e+00   3.4296875e+00   3.4335938e+00   3.4375000e+00   3.4414063e+00   3.4453125e+00   3.4492188e+00   3.4531250e+00   3.4570313e+00   3.4609375e+00   3.4648438e+00   3.4687500e+00   3.4726563e+00   3.4765625e+00   3.4804688e+00   3.4843750e+00   3.4882813e+00   3.4921875e+00   3.4960938e+00   3.5000000e+00   3.5039063e+00   3.5078125e+00   3.5117188e+00   3.5156250e+00   3.5195313e+00   3.5234375e+00   3.5273438e+00   3.5312500e+00   3.5351563e+00   3.5390625e+00   3.5429688e+00   3.5468750e+00   3.5507813e+00   3.5546875e+00   3.5585938e+00   3.5625000e+00   3.5664063e+00   3.5703125e+00   3.5742188e+00   3.5781250e+00   3.5820313e+00   3.5859375e+00   3.5898438e+00   3.5937500e+00   3.5976563e+00   3.6015625e+00   3.6054688e+00   3.6093750e+00   3.6132813e+00   3.6171875e+00   3.6210938e+00   3.6250000e+00   3.6289063e+00   3.6328125e+00   3.6367188e+00   3.6406250e+00   3.6445313e+00   3.6484375e+00   3.6523438e+00   3.6562500e+00   3.6601563e+00   3.6640625e+00   3.6679688e+00   3.6718750e+00   3.6757813e+00   3.6796875e+00   3.6835938e+00   3.6875000e+00   3.6914063e+00   3.6953125e+00   3.6992188e+00   3.7031250e+00   3.7070313e+00   3.7109375e+00   3.7148438e+00   3.7187500e+00   3.7226563e+00   3.7265625e+00   3.7304688e+00   3.7343750e+00   3.7382813e+00   3.7421875e+00   3.7460938e+00   3.7500000e+00   3.7539063e+00   3.7578125e+00   3.7617188e+00   3.7656250e+00   3.7695313e+00   3.7734375e+00   3.7773438e+00   3.7812500e+00   3.7851563e+00   3.7890625e+00   3.7929688e+00   3.7968750e+00   3.8007813e+00   3.8046875e+00   3.8085938e+00   3.8125000e+00   3.8164063e+00   3.8203125e+00   3.8242188e+00   3.8281250e+00   3.8320313e+00   3.8359375e+00   3.8398438e+00   3.8437500e+00   3.8476563e+00   3.8515625e+00   3.8554688e+00   3.8593750e+00   3.8632813e+00   3.8671875e+00   3.8710938e+00   3.8750000e+00   3.8789063e+00   3.8828125e+00   3.8867188e+00   3.8906250e+00   3.8945313e+00   3.8984375e+00   3.9023438e+00   3.9062500e+00   3.9101563e+00   3.9140625e+00   3.9179688e+00   3.9218750e+00   3.9257813e+00   3.9296875e+00   3.9335938e+00   3.9375000e+00   3.9414063e+00   3.9453125e+00   3.9492188e+00   3.9531250e+00   3.9570313e+00   3.9609375e+00   3.9648438e+00   3.9687500e+00   3.9726563e+00   3.9765625e+00   3.9804688e+00   3.9843750e+00   3.9882813e+00   3.9921875e+00   3.9960938e+00   4.0000000e+00   4.0039063e+00   4.0078125e+00   4.0117188e+00   4.0156250e+00   4.0195313e+00   4.0234375e+00   4.0273438e+00   4.0312500e+00   4.0351563e+00   4.0390625e+00   4.0429688e+00   4.0468750e+00   4.0507813e+00   4.0546875e+00   4.0585938e+00   4.0625000e+00   4.0664063e+00   4.0703125e+00   4.0742188e+00   4.0781250e+00   4.0820313e+00   4.0859375e+00   4.0898438e+00   4.0937500e+00   4.0976563e+00   4.1015625e+00   4.1054688e+00   4.1093750e+00   4.1132813e+00   4.1171875e+00   4.1210938e+00   4.1250000e+00   4.1289063e+00   4.1328125e+00   4.1367188e+00   4.1406250e+00   4.1445313e+00   4.1484375e+00   4.1523438e+00   4.1562500e+00   4.1601563e+00   4.1640625e+00   4.1679688e+00   4.1718750e+00   4.1757813e+00   4.1796875e+00   4.1835938e+00   4.1875000e+00   4.1914063e+00   4.1953125e+00   4.1992188e+00   4.2031250e+00   4.2070313e+00   4.2109375e+00   4.2148438e+00   4.2187500e+00   4.2226563e+00   4.2265625e+00   4.2304688e+00   4.2343750e+00   4.2382813e+00   4.2421875e+00   4.2460938e+00   4.2500000e+00   4.2539063e+00   4.2578125e+00   4.2617188e+00   4.2656250e+00   4.2695313e+00   4.2734375e+00   4.2773438e+00   4.2812500e+00   4.2851563e+00   4.2890625e+00   4.2929688e+00   4.2968750e+00   4.3007813e+00   4.3046875e+00   4.3085938e+00   4.3125000e+00   4.3164063e+00   4.3203125e+00   4.3242188e+00   4.3281250e+00   4.3320313e+00   4.3359375e+00   4.3398438e+00   4.3437500e+00   4.3476563e+00   4.3515625e+00   4.3554688e+00   4.3593750e+00   4.3632813e+00   4.3671875e+00   4.3710938e+00   4.3750000e+00   4.3789063e+00   4.3828125e+00   4.3867188e+00   4.3906250e+00   4.3945313e+00   4.3984375e+00   4.4023438e+00   4.4062500e+00   4.4101563e+00   4.4140625e+00   4.4179688e+00   4.4218750e+00   4.4257813e+00   4.4296875e+00   4.4335938e+00   4.4375000e+00   4.4414063e+00   4.4453125e+00   4.4492188e+00   4.4531250e+00   4.4570313e+00   4.4609375e+00   4.4648438e+00   4.4687500e+00   4.4726563e+00   4.4765625e+00   4.4804688e+00   4.4843750e+00   4.4882813e+00   4.4921875e+00   4.4960938e+00   4.5000000e+00   4.5039063e+00   4.5078125e+00   4.5117188e+00   4.5156250e+00   4.5195313e+00   4.5234375e+00   4.5273438e+00   4.5312500e+00   4.5351563e+00   4.5390625e+00   4.5429688e+00   4.5468750e+00   4.5507813e+00   4.5546875e+00   4.5585938e+00   4.5625000e+00   4.5664063e+00   4.5703125e+00   4.5742188e+00   4.5781250e+00   4.5820313e+00   4.5859375e+00   4.5898438e+00   4.5937500e+00   4.5976563e+00   4.6015625e+00   4.6054688e+00   4.6093750e+00   4.6132813e+00   4.6171875e+00   4.6210938e+00   4.6250000e+00   4.6289063e+00   4.6328125e+00   4.6367188e+00   4.6406250e+00   4.6445313e+00   4.6484375e+00   4.6523438e+00   4.6562500e+00   4.6601563e+00   4.6640625e+00   4.6679688e+00   4.6718750e+00   4.6757813e+00   4.6796875e+00   4.6835938e+00   4.6875000e+00   4.6914063e+00   4.6953125e+00   4.6992188e+00   4.7031250e+00   4.7070313e+00   4.7109375e+00   4.7148438e+00   4.7187500e+00   4.7226563e+00   4.7265625e+00   4.7304688e+00   4.7343750e+00   4.7382813e+00   4.7421875e+00   4.7460938e+00   4.7500000e+00   4.7539063e+00   4.7578125e+00   4.7617188e+00   4.7656250e+00   4.7695313e+00   4.7734375e+00   4.7773438e+00   4.7812500e+00   4.7851563e+00   4.7890625e+00   4.7929688e+00   4.7968750e+00   4.8007813e+00   4.8046875e+00   4.8085938e+00   4.8125000e+00   4.8164063e+00   4.8203125e+00   4.8242188e+00   4.8281250e+00   4.8320313e+00   4.8359375e+00   4.8398438e+00   4.8437500e+00   4.8476563e+00   4.8515625e+00   4.8554688e+00   4.8593750e+00   4.8632813e+00   4.8671875e+00   4.8710938e+00   4.8750000e+00   4.8789063e+00   4.8828125e+00   4.8867188e+00   4.8906250e+00   4.8945313e+00   4.8984375e+00   4.9023438e+00   4.9062500e+00   4.9101563e+00   4.9140625e+00   4.9179688e+00   4.9218750e+00   4.9257813e+00   4.9296875e+00   4.9335938e+00   4.9375000e+00   4.9414063e+00   4.9453125e+00   4.9492188e+00   4.9531250e+00   4.9570313e+00   4.9609375e+00   4.9648438e+00   4.9687500e+00   4.9726563e+00   4.9765625e+00   4.9804688e+00   4.9843750e+00   4.9882813e+00   4.9921875e+00   4.9960938e+00   5.0000000e+00   5.0039063e+00   5.0078125e+00   5.0117188e+00   5.0156250e+00   5.0195313e+00   5.0234375e+00   5.0273438e+00   5.0312500e+00   5.0351563e+00   5.0390625e+00   5.0429688e+00   5.0468750e+00   5.0507813e+00   5.0546875e+00   5.0585938e+00   5.0625000e+00   5.0664063e+00   5.0703125e+00   5.0742188e+00   5.0781250e+00   5.0820313e+00   5.0859375e+00   5.0898438e+00   5.0937500e+00   5.0976563e+00   5.1015625e+00   5.1054688e+00   5.1093750e+00   5.1132813e+00   5.1171875e+00   5.1210938e+00   5.1250000e+00   5.1289063e+00   5.1328125e+00   5.1367188e+00   5.1406250e+00   5.1445313e+00   5.1484375e+00   5.1523438e+00   5.1562500e+00   5.1601563e+00   5.1640625e+00   5.1679688e+00   5.1718750e+00   5.1757813e+00   5.1796875e+00   5.1835938e+00   5.1875000e+00   5.1914063e+00   5.1953125e+00   5.1992188e+00   5.2031250e+00   5.2070313e+00   5.2109375e+00   5.2148438e+00   5.2187500e+00   5.2226563e+00   5.2265625e+00   5.2304688e+00   5.2343750e+00   5.2382813e+00   5.2421875e+00   5.2460938e+00   5.2500000e+00   5.2539063e+00   5.2578125e+00   5.2617188e+00   5.2656250e+00   5.2695313e+00   5.2734375e+00   5.2773438e+00   5.2812500e+00   5.2851563e+00   5.2890625e+00   5.2929688e+00   5.2968750e+00   5.3007813e+00   5.3046875e+00   5.3085938e+00   5.3125000e+00   5.3164063e+00   5.3203125e+00   5.3242188e+00   5.3281250e+00   5.3320313e+00   5.3359375e+00   5.3398438e+00   5.3437500e+00   5.3476563e+00   5.3515625e+00   5.3554688e+00   5.3593750e+00   5.3632813e+00   5.3671875e+00   5.3710938e+00   5.3750000e+00   5.3789063e+00   5.3828125e+00   5.3867188e+00   5.3906250e+00   5.3945313e+00   5.3984375e+00   5.4023438e+00   5.4062500e+00   5.4101563e+00   5.4140625e+00   5.4179688e+00   5.4218750e+00   5.4257813e+00   5.4296875e+00   5.4335938e+00   5.4375000e+00   5.4414063e+00   5.4453125e+00   5.4492188e+00   5.4531250e+00   5.4570313e+00   5.4609375e+00   5.4648438e+00   5.4687500e+00   5.4726563e+00   5.4765625e+00   5.4804688e+00   5.4843750e+00   5.4882813e+00   5.4921875e+00   5.4960938e+00   5.5000000e+00   5.5039063e+00   5.5078125e+00   5.5117188e+00   5.5156250e+00   5.5195313e+00   5.5234375e+00   5.5273438e+00   5.5312500e+00   5.5351563e+00   5.5390625e+00   5.5429688e+00   5.5468750e+00   5.5507813e+00   5.5546875e+00   5.5585938e+00   5.5625000e+00   5.5664063e+00   5.5703125e+00   5.5742188e+00   5.5781250e+00   5.5820313e+00   5.5859375e+00   5.5898438e+00   5.5937500e+00   5.5976563e+00   5.6015625e+00   5.6054688e+00   5.6093750e+00   5.6132813e+00   5.6171875e+00   5.6210938e+00   5.6250000e+00   5.6289063e+00   5.6328125e+00   5.6367188e+00   5.6406250e+00   5.6445313e+00   5.6484375e+00   5.6523438e+00   5.6562500e+00   5.6601563e+00   5.6640625e+00   5.6679688e+00   5.6718750e+00   5.6757813e+00   5.6796875e+00   5.6835938e+00   5.6875000e+00   5.6914063e+00   5.6953125e+00   5.6992188e+00   5.7031250e+00   5.7070313e+00   5.7109375e+00   5.7148438e+00   5.7187500e+00   5.7226563e+00   5.7265625e+00   5.7304688e+00   5.7343750e+00   5.7382813e+00   5.7421875e+00   5.7460938e+00   5.7500000e+00   5.7539063e+00   5.7578125e+00   5.7617188e+00   5.7656250e+00   5.7695313e+00   5.7734375e+00   5.7773438e+00   5.7812500e+00   5.7851563e+00   5.7890625e+00   5.7929688e+00   5.7968750e+00   5.8007813e+00   5.8046875e+00   5.8085938e+00   5.8125000e+00   5.8164063e+00   5.8203125e+00   5.8242188e+00   5.8281250e+00   5.8320313e+00   5.8359375e+00   5.8398438e+00   5.8437500e+00   5.8476563e+00   5.8515625e+00   5.8554688e+00   5.8593750e+00   5.8632813e+00   5.8671875e+00   5.8710938e+00   5.8750000e+00   5.8789063e+00   5.8828125e+00   5.8867188e+00   5.8906250e+00   5.8945313e+00   5.8984375e+00   5.9023438e+00   5.9062500e+00   5.9101563e+00   5.9140625e+00   5.9179688e+00   5.9218750e+00   5.9257813e+00   5.9296875e+00   5.9335938e+00   5.9375000e+00   5.9414063e+00   5.9453125e+00   5.9492188e+00   5.9531250e+00   5.9570313e+00   5.9609375e+00   5.9648438e+00   5.9687500e+00   5.9726563e+00   5.9765625e+00   5.9804688e+00   5.9843750e+00   5.9882813e+00   5.9921875e+00   5.9960938e+00   6.0000000e+00   6.0039063e+00   6.0078125e+00   6.0117188e+00   6.0156250e+00   6.0195313e+00   6.0234375e+00   6.0273438e+00   6.0312500e+00   6.0351563e+00   6.0390625e+00   6.0429688e+00   6.0468750e+00   6.0507813e+00   6.0546875e+00   6.0585938e+00   6.0625000e+00   6.0664063e+00   6.0703125e+00   6.0742188e+00   6.0781250e+00   6.0820313e+00   6.0859375e+00   6.0898438e+00   6.0937500e+00   6.0976563e+00   6.1015625e+00   6.1054688e+00   6.1093750e+00   6.1132813e+00   6.1171875e+00   6.1210938e+00   6.1250000e+00   6.1289063e+00   6.1328125e+00   6.1367188e+00   6.1406250e+00   6.1445313e+00   6.1484375e+00   6.1523438e+00   6.1562500e+00   6.1601563e+00   6.1640625e+00   6.1679688e+00   6.1718750e+00   6.1757813e+00   6.1796875e+00   6.1835938e+00   6.1875000e+00   6.1914063e+00   6.1953125e+00   6.1992188e+00   6.2031250e+00   6.2070313e+00   6.2109375e+00   6.2148438e+00   6.2187500e+00   6.2226563e+00   6.2265625e+00   6.2304688e+00   6.2343750e+00   6.2382813e+00   6.2421875e+00   6.2460938e+00   6.2500000e+00   6.2539063e+00   6.2578125e+00   6.2617188e+00   6.2656250e+00   6.2695313e+00   6.2734375e+00   6.2773438e+00   6.2812500e+00   6.2851563e+00   6.2890625e+00   6.2929688e+00   6.2968750e+00   6.3007813e+00   6.3046875e+00   6.3085938e+00   6.3125000e+00   6.3164063e+00   6.3203125e+00   6.3242188e+00   6.3281250e+00   6.3320313e+00   6.3359375e+00   6.3398438e+00   6.3437500e+00   6.3476563e+00   6.3515625e+00   6.3554688e+00   6.3593750e+00   6.3632813e+00   6.3671875e+00   6.3710938e+00   6.3750000e+00   6.3789063e+00   6.3828125e+00   6.3867188e+00   6.3906250e+00   6.3945313e+00   6.3984375e+00   6.4023438e+00   6.4062500e+00   6.4101563e+00   6.4140625e+00   6.4179688e+00   6.4218750e+00   6.4257813e+00   6.4296875e+00   6.4335938e+00   6.4375000e+00   6.4414063e+00   6.4453125e+00   6.4492188e+00   6.4531250e+00   6.4570313e+00   6.4609375e+00   6.4648438e+00   6.4687500e+00   6.4726563e+00   6.4765625e+00   6.4804688e+00   6.4843750e+00   6.4882813e+00   6.4921875e+00   6.4960938e+00   6.5000000e+00   6.5039063e+00   6.5078125e+00   6.5117188e+00   6.5156250e+00   6.5195313e+00   6.5234375e+00   6.5273438e+00   6.5312500e+00   6.5351563e+00   6.5390625e+00   6.5429688e+00   6.5468750e+00   6.5507813e+00   6.5546875e+00   6.5585938e+00   6.5625000e+00   6.5664063e+00   6.5703125e+00   6.5742188e+00   6.5781250e+00   6.5820313e+00   6.5859375e+00   6.5898438e+00   6.5937500e+00   6.5976563e+00   6.6015625e+00   6.6054688e+00   6.6093750e+00   6.6132813e+00   6.6171875e+00   6.6210938e+00   6.6250000e+00   6.6289063e+00   6.6328125e+00   6.6367188e+00   6.6406250e+00   6.6445313e+00   6.6484375e+00   6.6523438e+00   6.6562500e+00   6.6601563e+00   6.6640625e+00   6.6679688e+00   6.6718750e+00   6.6757813e+00   6.6796875e+00   6.6835938e+00   6.6875000e+00   6.6914063e+00   6.6953125e+00   6.6992188e+00   6.7031250e+00   6.7070313e+00   6.7109375e+00   6.7148438e+00   6.7187500e+00   6.7226563e+00   6.7265625e+00   6.7304688e+00   6.7343750e+00   6.7382813e+00   6.7421875e+00   6.7460938e+00   6.7500000e+00   6.7539063e+00   6.7578125e+00   6.7617188e+00   6.7656250e+00   6.7695313e+00   6.7734375e+00   6.7773438e+00   6.7812500e+00   6.7851563e+00   6.7890625e+00   6.7929688e+00   6.7968750e+00   6.8007813e+00   6.8046875e+00   6.8085938e+00   6.8125000e+00   6.8164063e+00   6.8203125e+00   6.8242188e+00   6.8281250e+00   6.8320313e+00   6.8359375e+00   6.8398438e+00   6.8437500e+00   6.8476563e+00   6.8515625e+00   6.8554688e+00   6.8593750e+00   6.8632813e+00   6.8671875e+00   6.8710938e+00   6.8750000e+00   6.8789063e+00   6.8828125e+00   6.8867188e+00   6.8906250e+00   6.8945313e+00   6.8984375e+00   6.9023438e+00   6.9062500e+00   6.9101563e+00   6.9140625e+00   6.9179688e+00   6.9218750e+00   6.9257813e+00   6.9296875e+00   6.9335938e+00   6.9375000e+00   6.9414063e+00   6.9453125e+00   6.9492188e+00   6.9531250e+00   6.9570313e+00   6.9609375e+00   6.9648438e+00   6.9687500e+00   6.9726563e+00   6.9765625e+00   6.9804688e+00   6.9843750e+00   6.9882813e+00   6.9921875e+00   6.9960938e+00   7.0000000e+00   7.0039063e+00   7.0078125e+00   7.0117188e+00   7.0156250e+00   7.0195313e+00   7.0234375e+00   7.0273438e+00   7.0312500e+00   7.0351563e+00   7.0390625e+00   7.0429688e+00   7.0468750e+00   7.0507813e+00   7.0546875e+00   7.0585938e+00   7.0625000e+00   7.0664063e+00   7.0703125e+00   7.0742188e+00   7.0781250e+00   7.0820313e+00   7.0859375e+00   7.0898438e+00   7.0937500e+00   7.0976563e+00   7.1015625e+00   7.1054688e+00   7.1093750e+00   7.1132813e+00   7.1171875e+00   7.1210938e+00   7.1250000e+00   7.1289063e+00   7.1328125e+00   7.1367188e+00   7.1406250e+00   7.1445313e+00   7.1484375e+00   7.1523438e+00   7.1562500e+00   7.1601563e+00   7.1640625e+00   7.1679688e+00   7.1718750e+00   7.1757813e+00   7.1796875e+00   7.1835938e+00   7.1875000e+00   7.1914063e+00   7.1953125e+00   7.1992188e+00   7.2031250e+00   7.2070313e+00   7.2109375e+00   7.2148438e+00   7.2187500e+00   7.2226563e+00   7.2265625e+00   7.2304688e+00   7.2343750e+00   7.2382813e+00   7.2421875e+00   7.2460938e+00   7.2500000e+00   7.2539063e+00   7.2578125e+00   7.2617188e+00   7.2656250e+00   7.2695313e+00   7.2734375e+00   7.2773438e+00   7.2812500e+00   7.2851563e+00   7.2890625e+00   7.2929688e+00   7.2968750e+00   7.3007813e+00   7.3046875e+00   7.3085938e+00   7.3125000e+00   7.3164063e+00   7.3203125e+00   7.3242188e+00   7.3281250e+00   7.3320313e+00   7.3359375e+00   7.3398438e+00   7.3437500e+00   7.3476563e+00   7.3515625e+00   7.3554688e+00   7.3593750e+00   7.3632813e+00   7.3671875e+00   7.3710938e+00   7.3750000e+00   7.3789063e+00   7.3828125e+00   7.3867188e+00   7.3906250e+00   7.3945313e+00   7.3984375e+00   7.4023438e+00   7.4062500e+00   7.4101563e+00   7.4140625e+00   7.4179688e+00   7.4218750e+00   7.4257813e+00   7.4296875e+00   7.4335938e+00   7.4375000e+00   7.4414063e+00   7.4453125e+00   7.4492188e+00   7.4531250e+00   7.4570313e+00   7.4609375e+00   7.4648438e+00   7.4687500e+00   7.4726563e+00   7.4765625e+00   7.4804688e+00   7.4843750e+00   7.4882813e+00   7.4921875e+00   7.4960938e+00   7.5000000e+00   7.5039063e+00   7.5078125e+00   7.5117188e+00   7.5156250e+00   7.5195313e+00   7.5234375e+00   7.5273438e+00   7.5312500e+00   7.5351563e+00   7.5390625e+00   7.5429688e+00   7.5468750e+00   7.5507813e+00   7.5546875e+00   7.5585938e+00   7.5625000e+00   7.5664063e+00   7.5703125e+00   7.5742188e+00   7.5781250e+00   7.5820313e+00   7.5859375e+00   7.5898438e+00   7.5937500e+00   7.5976563e+00   7.6015625e+00   7.6054688e+00   7.6093750e+00   7.6132813e+00   7.6171875e+00   7.6210938e+00   7.6250000e+00   7.6289063e+00   7.6328125e+00   7.6367188e+00   7.6406250e+00   7.6445313e+00   7.6484375e+00   7.6523438e+00   7.6562500e+00   7.6601563e+00   7.6640625e+00   7.6679688e+00   7.6718750e+00   7.6757813e+00   7.6796875e+00   7.6835938e+00   7.6875000e+00   7.6914063e+00   7.6953125e+00   7.6992188e+00   7.7031250e+00   7.7070313e+00   7.7109375e+00   7.7148438e+00   7.7187500e+00   7.7226563e+00   7.7265625e+00   7.7304688e+00   7.7343750e+00   7.7382813e+00   7.7421875e+00   7.7460938e+00   7.7500000e+00   7.7539063e+00   7.7578125e+00   7.7617188e+00   7.7656250e+00   7.7695313e+00   7.7734375e+00   7.7773438e+00   7.7812500e+00   7.7851563e+00   7.7890625e+00   7.7929688e+00   7.7968750e+00   7.8007813e+00   7.8046875e+00   7.8085938e+00   7.8125000e+00   7.8164063e+00   7.8203125e+00   7.8242188e+00   7.8281250e+00   7.8320313e+00   7.8359375e+00   7.8398438e+00   7.8437500e+00   7.8476563e+00   7.8515625e+00   7.8554688e+00   7.8593750e+00   7.8632813e+00   7.8671875e+00   7.8710938e+00   7.8750000e+00   7.8789063e+00   7.8828125e+00   7.8867188e+00   7.8906250e+00   7.8945313e+00   7.8984375e+00   7.9023438e+00   7.9062500e+00   7.9101563e+00   7.9140625e+00   7.9179688e+00   7.9218750e+00   7.9257813e+00   7.9296875e+00   7.9335938e+00   7.9375000e+00   7.9414063e+00   7.9453125e+00   7.9492188e+00   7.9531250e+00   7.9570313e+00   7.9609375e+00   7.9648438e+00   7.9687500e+00   7.9726563e+00   7.9765625e+00   7.9804688e+00   7.9843750e+00   7.9882813e+00   7.9921875e+00   7.9960938e+00   8.0000000e+00   8.0039063e+00   8.0078125e+00   8.0117188e+00   8.0156250e+00   8.0195313e+00   8.0234375e+00   8.0273438e+00   8.0312500e+00   8.0351563e+00   8.0390625e+00   8.0429688e+00   8.0468750e+00   8.0507813e+00   8.0546875e+00   8.0585938e+00   8.0625000e+00   8.0664063e+00   8.0703125e+00   8.0742188e+00   8.0781250e+00   8.0820313e+00   8.0859375e+00   8.0898438e+00   8.0937500e+00   8.0976563e+00   8.1015625e+00   8.1054688e+00   8.1093750e+00   8.1132813e+00   8.1171875e+00   8.1210938e+00   8.1250000e+00   8.1289063e+00   8.1328125e+00   8.1367188e+00   8.1406250e+00   8.1445313e+00   8.1484375e+00   8.1523438e+00   8.1562500e+00   8.1601563e+00   8.1640625e+00   8.1679688e+00   8.1718750e+00   8.1757813e+00   8.1796875e+00   8.1835938e+00   8.1875000e+00   8.1914063e+00   8.1953125e+00   8.1992188e+00   8.2031250e+00   8.2070313e+00   8.2109375e+00   8.2148438e+00   8.2187500e+00   8.2226563e+00   8.2265625e+00   8.2304688e+00   8.2343750e+00   8.2382813e+00   8.2421875e+00   8.2460938e+00   8.2500000e+00   8.2539063e+00   8.2578125e+00   8.2617188e+00   8.2656250e+00   8.2695313e+00   8.2734375e+00   8.2773438e+00   8.2812500e+00   8.2851563e+00   8.2890625e+00   8.2929688e+00   8.2968750e+00   8.3007813e+00   8.3046875e+00   8.3085938e+00   8.3125000e+00   8.3164063e+00   8.3203125e+00   8.3242188e+00   8.3281250e+00   8.3320313e+00   8.3359375e+00   8.3398438e+00   8.3437500e+00   8.3476563e+00   8.3515625e+00   8.3554688e+00   8.3593750e+00   8.3632813e+00   8.3671875e+00   8.3710938e+00   8.3750000e+00   8.3789063e+00   8.3828125e+00   8.3867188e+00   8.3906250e+00   8.3945313e+00   8.3984375e+00   8.4023438e+00   8.4062500e+00   8.4101563e+00   8.4140625e+00   8.4179688e+00   8.4218750e+00   8.4257813e+00   8.4296875e+00   8.4335938e+00   8.4375000e+00   8.4414063e+00   8.4453125e+00   8.4492188e+00   8.4531250e+00   8.4570313e+00   8.4609375e+00   8.4648438e+00   8.4687500e+00   8.4726563e+00   8.4765625e+00   8.4804688e+00   8.4843750e+00   8.4882813e+00   8.4921875e+00   8.4960938e+00   8.5000000e+00   8.5039063e+00   8.5078125e+00   8.5117188e+00   8.5156250e+00   8.5195313e+00   8.5234375e+00   8.5273438e+00   8.5312500e+00   8.5351563e+00   8.5390625e+00   8.5429688e+00   8.5468750e+00   8.5507813e+00   8.5546875e+00   8.5585938e+00   8.5625000e+00   8.5664063e+00   8.5703125e+00   8.5742188e+00   8.5781250e+00   8.5820313e+00   8.5859375e+00   8.5898438e+00   8.5937500e+00   8.5976563e+00   8.6015625e+00   8.6054688e+00   8.6093750e+00   8.6132813e+00   8.6171875e+00   8.6210938e+00   8.6250000e+00   8.6289063e+00   8.6328125e+00   8.6367188e+00   8.6406250e+00   8.6445313e+00   8.6484375e+00   8.6523438e+00   8.6562500e+00   8.6601563e+00   8.6640625e+00   8.6679688e+00   8.6718750e+00   8.6757813e+00   8.6796875e+00   8.6835938e+00   8.6875000e+00   8.6914063e+00   8.6953125e+00   8.6992188e+00   8.7031250e+00   8.7070313e+00   8.7109375e+00   8.7148438e+00   8.7187500e+00   8.7226563e+00   8.7265625e+00   8.7304688e+00   8.7343750e+00   8.7382813e+00   8.7421875e+00   8.7460938e+00   8.7500000e+00   8.7539063e+00   8.7578125e+00   8.7617188e+00   8.7656250e+00   8.7695313e+00   8.7734375e+00   8.7773438e+00   8.7812500e+00   8.7851563e+00   8.7890625e+00   8.7929688e+00   8.7968750e+00   8.8007813e+00   8.8046875e+00   8.8085938e+00   8.8125000e+00   8.8164063e+00   8.8203125e+00   8.8242188e+00   8.8281250e+00   8.8320313e+00   8.8359375e+00   8.8398438e+00   8.8437500e+00   8.8476563e+00   8.8515625e+00   8.8554688e+00   8.8593750e+00   8.8632813e+00   8.8671875e+00   8.8710938e+00   8.8750000e+00   8.8789063e+00   8.8828125e+00   8.8867188e+00   8.8906250e+00   8.8945313e+00   8.8984375e+00   8.9023438e+00   8.9062500e+00   8.9101563e+00   8.9140625e+00   8.9179688e+00   8.9218750e+00   8.9257813e+00   8.9296875e+00   8.9335938e+00   8.9375000e+00   8.9414063e+00   8.9453125e+00   8.9492188e+00   8.9531250e+00   8.9570313e+00   8.9609375e+00   8.9648438e+00   8.9687500e+00   8.9726563e+00   8.9765625e+00   8.9804688e+00   8.9843750e+00   8.9882813e+00   8.9921875e+00   8.9960938e+00   9.0000000e+00   9.0039063e+00   9.0078125e+00   9.0117188e+00   9.0156250e+00   9.0195313e+00   9.0234375e+00   9.0273438e+00   9.0312500e+00   9.0351563e+00   9.0390625e+00   9.0429688e+00   9.0468750e+00   9.0507813e+00   9.0546875e+00   9.0585938e+00   9.0625000e+00   9.0664063e+00   9.0703125e+00   9.0742188e+00   9.0781250e+00   9.0820313e+00   9.0859375e+00   9.0898438e+00   9.0937500e+00   9.0976563e+00   9.1015625e+00   9.1054688e+00   9.1093750e+00   9.1132813e+00   9.1171875e+00   9.1210938e+00   9.1250000e+00   9.1289063e+00   9.1328125e+00   9.1367188e+00   9.1406250e+00   9.1445313e+00   9.1484375e+00   9.1523438e+00   9.1562500e+00   9.1601563e+00   9.1640625e+00   9.1679688e+00   9.1718750e+00   9.1757813e+00   9.1796875e+00   9.1835938e+00   9.1875000e+00   9.1914063e+00   9.1953125e+00   9.1992188e+00   9.2031250e+00   9.2070313e+00   9.2109375e+00   9.2148438e+00   9.2187500e+00   9.2226563e+00   9.2265625e+00   9.2304688e+00   9.2343750e+00   9.2382813e+00   9.2421875e+00   9.2460938e+00   9.2500000e+00   9.2539063e+00   9.2578125e+00   9.2617188e+00   9.2656250e+00   9.2695313e+00   9.2734375e+00   9.2773438e+00   9.2812500e+00   9.2851563e+00   9.2890625e+00   9.2929688e+00   9.2968750e+00   9.3007813e+00   9.3046875e+00   9.3085938e+00   9.3125000e+00   9.3164063e+00   9.3203125e+00   9.3242188e+00   9.3281250e+00   9.3320313e+00   9.3359375e+00   9.3398438e+00   9.3437500e+00   9.3476563e+00   9.3515625e+00   9.3554688e+00   9.3593750e+00   9.3632813e+00   9.3671875e+00   9.3710938e+00   9.3750000e+00   9.3789063e+00   9.3828125e+00   9.3867188e+00   9.3906250e+00   9.3945313e+00   9.3984375e+00   9.4023438e+00   9.4062500e+00   9.4101563e+00   9.4140625e+00   9.4179688e+00   9.4218750e+00   9.4257813e+00   9.4296875e+00   9.4335938e+00   9.4375000e+00   9.4414063e+00   9.4453125e+00   9.4492188e+00   9.4531250e+00   9.4570313e+00   9.4609375e+00   9.4648438e+00   9.4687500e+00   9.4726563e+00   9.4765625e+00   9.4804688e+00   9.4843750e+00   9.4882813e+00   9.4921875e+00   9.4960938e+00   9.5000000e+00   9.5039063e+00   9.5078125e+00   9.5117188e+00   9.5156250e+00   9.5195313e+00   9.5234375e+00   9.5273438e+00   9.5312500e+00   9.5351563e+00   9.5390625e+00   9.5429688e+00   9.5468750e+00   9.5507813e+00   9.5546875e+00   9.5585938e+00   9.5625000e+00   9.5664063e+00   9.5703125e+00   9.5742188e+00   9.5781250e+00   9.5820313e+00   9.5859375e+00   9.5898438e+00   9.5937500e+00   9.5976563e+00   9.6015625e+00   9.6054688e+00   9.6093750e+00   9.6132813e+00   9.6171875e+00   9.6210938e+00   9.6250000e+00   9.6289063e+00   9.6328125e+00   9.6367188e+00   9.6406250e+00   9.6445313e+00   9.6484375e+00   9.6523438e+00   9.6562500e+00   9.6601563e+00   9.6640625e+00   9.6679688e+00   9.6718750e+00   9.6757813e+00   9.6796875e+00   9.6835938e+00   9.6875000e+00   9.6914063e+00   9.6953125e+00   9.6992188e+00   9.7031250e+00   9.7070313e+00   9.7109375e+00   9.7148438e+00   9.7187500e+00   9.7226563e+00   9.7265625e+00   9.7304688e+00   9.7343750e+00   9.7382813e+00   9.7421875e+00   9.7460938e+00   9.7500000e+00   9.7539063e+00   9.7578125e+00   9.7617188e+00   9.7656250e+00   9.7695313e+00   9.7734375e+00   9.7773438e+00   9.7812500e+00   9.7851563e+00   9.7890625e+00   9.7929688e+00   9.7968750e+00   9.8007813e+00   9.8046875e+00   9.8085938e+00   9.8125000e+00   9.8164063e+00   9.8203125e+00   9.8242188e+00   9.8281250e+00   9.8320313e+00   9.8359375e+00   9.8398438e+00   9.8437500e+00   9.8476563e+00   9.8515625e+00   9.8554688e+00   9.8593750e+00   9.8632813e+00   9.8671875e+00   9.8710938e+00   9.8750000e+00   9.8789063e+00   9.8828125e+00   9.8867188e+00   9.8906250e+00   9.8945313e+00   9.8984375e+00   9.9023438e+00   9.9062500e+00   9.9101563e+00   9.9140625e+00   9.9179688e+00   9.9218750e+00   9.9257813e+00   9.9296875e+00   9.9335938e+00   9.9375000e+00   9.9414063e+00   9.9453125e+00   9.9492188e+00   9.9531250e+00   9.9570313e+00   9.9609375e+00   9.9648438e+00   9.9687500e+00   9.9726563e+00   9.9765625e+00   9.9804688e+00   9.9843750e+00   9.9882813e+00   9.9921875e+00   9.9960938e+00   1.0000000e+01   1.0003906e+01   1.0007813e+01   1.0011719e+01   1.0015625e+01   1.0019531e+01   1.0023438e+01   1.0027344e+01   1.0031250e+01   1.0035156e+01   1.0039063e+01   1.0042969e+01   1.0046875e+01   1.0050781e+01   1.0054688e+01   1.0058594e+01   1.0062500e+01   1.0066406e+01   1.0070313e+01   1.0074219e+01   1.0078125e+01   1.0082031e+01   1.0085938e+01   1.0089844e+01   1.0093750e+01   1.0097656e+01   1.0101563e+01   1.0105469e+01   1.0109375e+01   1.0113281e+01   1.0117188e+01   1.0121094e+01   1.0125000e+01   1.0128906e+01   1.0132813e+01   1.0136719e+01   1.0140625e+01   1.0144531e+01   1.0148438e+01   1.0152344e+01   1.0156250e+01   1.0160156e+01   1.0164063e+01   1.0167969e+01   1.0171875e+01   1.0175781e+01   1.0179688e+01   1.0183594e+01   1.0187500e+01   1.0191406e+01   1.0195313e+01   1.0199219e+01   1.0203125e+01   1.0207031e+01   1.0210938e+01   1.0214844e+01   1.0218750e+01   1.0222656e+01   1.0226563e+01   1.0230469e+01   1.0234375e+01   1.0238281e+01   1.0242188e+01   1.0246094e+01   1.0250000e+01   1.0253906e+01   1.0257813e+01   1.0261719e+01   1.0265625e+01   1.0269531e+01   1.0273438e+01   1.0277344e+01   1.0281250e+01   1.0285156e+01   1.0289063e+01   1.0292969e+01   1.0296875e+01   1.0300781e+01   1.0304688e+01   1.0308594e+01   1.0312500e+01   1.0316406e+01   1.0320313e+01   1.0324219e+01   1.0328125e+01   1.0332031e+01   1.0335938e+01   1.0339844e+01   1.0343750e+01   1.0347656e+01   1.0351563e+01   1.0355469e+01   1.0359375e+01   1.0363281e+01   1.0367188e+01   1.0371094e+01   1.0375000e+01   1.0378906e+01   1.0382813e+01   1.0386719e+01   1.0390625e+01   1.0394531e+01   1.0398438e+01   1.0402344e+01   1.0406250e+01   1.0410156e+01   1.0414063e+01   1.0417969e+01   1.0421875e+01   1.0425781e+01   1.0429688e+01   1.0433594e+01   1.0437500e+01   1.0441406e+01   1.0445313e+01   1.0449219e+01   1.0453125e+01   1.0457031e+01   1.0460938e+01   1.0464844e+01   1.0468750e+01   1.0472656e+01   1.0476563e+01   1.0480469e+01   1.0484375e+01   1.0488281e+01   1.0492188e+01   1.0496094e+01   1.0500000e+01   1.0503906e+01   1.0507813e+01   1.0511719e+01   1.0515625e+01   1.0519531e+01   1.0523438e+01   1.0527344e+01   1.0531250e+01   1.0535156e+01   1.0539063e+01   1.0542969e+01   1.0546875e+01   1.0550781e+01   1.0554688e+01   1.0558594e+01   1.0562500e+01   1.0566406e+01   1.0570313e+01   1.0574219e+01   1.0578125e+01   1.0582031e+01   1.0585938e+01   1.0589844e+01   1.0593750e+01   1.0597656e+01   1.0601563e+01   1.0605469e+01   1.0609375e+01   1.0613281e+01   1.0617188e+01   1.0621094e+01   1.0625000e+01   1.0628906e+01   1.0632813e+01   1.0636719e+01   1.0640625e+01   1.0644531e+01   1.0648438e+01   1.0652344e+01   1.0656250e+01   1.0660156e+01   1.0664063e+01   1.0667969e+01   1.0671875e+01   1.0675781e+01   1.0679688e+01   1.0683594e+01   1.0687500e+01   1.0691406e+01   1.0695313e+01   1.0699219e+01   1.0703125e+01   1.0707031e+01   1.0710938e+01   1.0714844e+01   1.0718750e+01   1.0722656e+01   1.0726563e+01   1.0730469e+01   1.0734375e+01   1.0738281e+01   1.0742188e+01   1.0746094e+01   1.0750000e+01   1.0753906e+01   1.0757813e+01   1.0761719e+01   1.0765625e+01   1.0769531e+01   1.0773438e+01   1.0777344e+01   1.0781250e+01   1.0785156e+01   1.0789063e+01   1.0792969e+01   1.0796875e+01   1.0800781e+01   1.0804688e+01   1.0808594e+01   1.0812500e+01   1.0816406e+01   1.0820313e+01   1.0824219e+01   1.0828125e+01   1.0832031e+01   1.0835938e+01   1.0839844e+01   1.0843750e+01   1.0847656e+01   1.0851563e+01   1.0855469e+01   1.0859375e+01   1.0863281e+01   1.0867188e+01   1.0871094e+01   1.0875000e+01   1.0878906e+01   1.0882813e+01   1.0886719e+01   1.0890625e+01   1.0894531e+01   1.0898438e+01   1.0902344e+01   1.0906250e+01   1.0910156e+01   1.0914063e+01   1.0917969e+01   1.0921875e+01   1.0925781e+01   1.0929688e+01   1.0933594e+01   1.0937500e+01   1.0941406e+01   1.0945313e+01   1.0949219e+01   1.0953125e+01   1.0957031e+01   1.0960938e+01   1.0964844e+01   1.0968750e+01   1.0972656e+01   1.0976563e+01   1.0980469e+01   1.0984375e+01   1.0988281e+01   1.0992188e+01   1.0996094e+01   1.1000000e+01   1.1003906e+01   1.1007813e+01   1.1011719e+01   1.1015625e+01   1.1019531e+01   1.1023438e+01   1.1027344e+01   1.1031250e+01   1.1035156e+01   1.1039063e+01   1.1042969e+01   1.1046875e+01   1.1050781e+01   1.1054688e+01   1.1058594e+01   1.1062500e+01   1.1066406e+01   1.1070313e+01   1.1074219e+01   1.1078125e+01   1.1082031e+01   1.1085938e+01   1.1089844e+01   1.1093750e+01   1.1097656e+01   1.1101563e+01   1.1105469e+01   1.1109375e+01   1.1113281e+01   1.1117188e+01   1.1121094e+01   1.1125000e+01   1.1128906e+01   1.1132813e+01   1.1136719e+01   1.1140625e+01   1.1144531e+01   1.1148438e+01   1.1152344e+01   1.1156250e+01   1.1160156e+01   1.1164063e+01   1.1167969e+01   1.1171875e+01   1.1175781e+01   1.1179688e+01   1.1183594e+01   1.1187500e+01   1.1191406e+01   1.1195313e+01   1.1199219e+01   1.1203125e+01   1.1207031e+01   1.1210938e+01   1.1214844e+01   1.1218750e+01   1.1222656e+01   1.1226563e+01   1.1230469e+01   1.1234375e+01   1.1238281e+01   1.1242188e+01   1.1246094e+01   1.1250000e+01   1.1253906e+01   1.1257813e+01   1.1261719e+01   1.1265625e+01   1.1269531e+01   1.1273438e+01   1.1277344e+01   1.1281250e+01   1.1285156e+01   1.1289063e+01   1.1292969e+01   1.1296875e+01   1.1300781e+01   1.1304688e+01   1.1308594e+01   1.1312500e+01   1.1316406e+01   1.1320313e+01   1.1324219e+01   1.1328125e+01   1.1332031e+01   1.1335938e+01   1.1339844e+01   1.1343750e+01   1.1347656e+01   1.1351563e+01   1.1355469e+01   1.1359375e+01   1.1363281e+01   1.1367188e+01   1.1371094e+01   1.1375000e+01   1.1378906e+01   1.1382813e+01   1.1386719e+01   1.1390625e+01   1.1394531e+01   1.1398438e+01   1.1402344e+01   1.1406250e+01   1.1410156e+01   1.1414063e+01   1.1417969e+01   1.1421875e+01   1.1425781e+01   1.1429688e+01   1.1433594e+01   1.1437500e+01   1.1441406e+01   1.1445313e+01   1.1449219e+01   1.1453125e+01   1.1457031e+01   1.1460938e+01   1.1464844e+01   1.1468750e+01   1.1472656e+01   1.1476563e+01   1.1480469e+01   1.1484375e+01   1.1488281e+01   1.1492188e+01   1.1496094e+01   1.1500000e+01   1.1503906e+01   1.1507813e+01   1.1511719e+01   1.1515625e+01   1.1519531e+01   1.1523438e+01   1.1527344e+01   1.1531250e+01   1.1535156e+01   1.1539063e+01   1.1542969e+01   1.1546875e+01   1.1550781e+01   1.1554688e+01   1.1558594e+01   1.1562500e+01   1.1566406e+01   1.1570313e+01   1.1574219e+01   1.1578125e+01   1.1582031e+01   1.1585938e+01   1.1589844e+01   1.1593750e+01   1.1597656e+01   1.1601563e+01   1.1605469e+01   1.1609375e+01   1.1613281e+01   1.1617188e+01   1.1621094e+01   1.1625000e+01   1.1628906e+01   1.1632813e+01   1.1636719e+01   1.1640625e+01   1.1644531e+01   1.1648438e+01   1.1652344e+01   1.1656250e+01   1.1660156e+01   1.1664063e+01   1.1667969e+01   1.1671875e+01   1.1675781e+01   1.1679688e+01   1.1683594e+01   1.1687500e+01   1.1691406e+01   1.1695313e+01   1.1699219e+01   1.1703125e+01   1.1707031e+01   1.1710938e+01   1.1714844e+01   1.1718750e+01   1.1722656e+01   1.1726563e+01   1.1730469e+01   1.1734375e+01   1.1738281e+01   1.1742188e+01   1.1746094e+01   1.1750000e+01   1.1753906e+01   1.1757813e+01   1.1761719e+01   1.1765625e+01   1.1769531e+01   1.1773438e+01   1.1777344e+01   1.1781250e+01   1.1785156e+01   1.1789063e+01   1.1792969e+01   1.1796875e+01   1.1800781e+01   1.1804688e+01   1.1808594e+01   1.1812500e+01   1.1816406e+01   1.1820313e+01   1.1824219e+01   1.1828125e+01   1.1832031e+01   1.1835938e+01   1.1839844e+01   1.1843750e+01   1.1847656e+01   1.1851563e+01   1.1855469e+01   1.1859375e+01   1.1863281e+01   1.1867188e+01   1.1871094e+01   1.1875000e+01   1.1878906e+01   1.1882813e+01   1.1886719e+01   1.1890625e+01   1.1894531e+01   1.1898438e+01   1.1902344e+01   1.1906250e+01   1.1910156e+01   1.1914063e+01   1.1917969e+01   1.1921875e+01   1.1925781e+01   1.1929688e+01   1.1933594e+01   1.1937500e+01   1.1941406e+01   1.1945313e+01   1.1949219e+01   1.1953125e+01   1.1957031e+01   1.1960938e+01   1.1964844e+01   1.1968750e+01   1.1972656e+01   1.1976563e+01   1.1980469e+01   1.1984375e+01   1.1988281e+01   1.1992188e+01   1.1996094e+01   1.2000000e+01   1.2003906e+01   1.2007813e+01   1.2011719e+01   1.2015625e+01   1.2019531e+01   1.2023438e+01   1.2027344e+01   1.2031250e+01   1.2035156e+01   1.2039063e+01   1.2042969e+01   1.2046875e+01   1.2050781e+01   1.2054688e+01   1.2058594e+01   1.2062500e+01   1.2066406e+01   1.2070313e+01   1.2074219e+01   1.2078125e+01   1.2082031e+01   1.2085938e+01   1.2089844e+01   1.2093750e+01   1.2097656e+01   1.2101563e+01   1.2105469e+01   1.2109375e+01   1.2113281e+01   1.2117188e+01   1.2121094e+01   1.2125000e+01   1.2128906e+01   1.2132813e+01   1.2136719e+01   1.2140625e+01   1.2144531e+01   1.2148438e+01   1.2152344e+01   1.2156250e+01   1.2160156e+01   1.2164063e+01   1.2167969e+01   1.2171875e+01   1.2175781e+01   1.2179688e+01   1.2183594e+01   1.2187500e+01   1.2191406e+01   1.2195313e+01   1.2199219e+01   1.2203125e+01   1.2207031e+01   1.2210938e+01   1.2214844e+01   1.2218750e+01   1.2222656e+01   1.2226563e+01   1.2230469e+01   1.2234375e+01   1.2238281e+01   1.2242188e+01   1.2246094e+01   1.2250000e+01   1.2253906e+01   1.2257813e+01   1.2261719e+01   1.2265625e+01   1.2269531e+01   1.2273438e+01   1.2277344e+01   1.2281250e+01   1.2285156e+01   1.2289063e+01   1.2292969e+01   1.2296875e+01   1.2300781e+01   1.2304688e+01   1.2308594e+01   1.2312500e+01   1.2316406e+01   1.2320313e+01   1.2324219e+01   1.2328125e+01   1.2332031e+01   1.2335938e+01   1.2339844e+01   1.2343750e+01   1.2347656e+01   1.2351563e+01   1.2355469e+01   1.2359375e+01   1.2363281e+01   1.2367188e+01   1.2371094e+01   1.2375000e+01   1.2378906e+01   1.2382813e+01   1.2386719e+01   1.2390625e+01   1.2394531e+01   1.2398438e+01   1.2402344e+01   1.2406250e+01   1.2410156e+01   1.2414063e+01   1.2417969e+01   1.2421875e+01   1.2425781e+01   1.2429688e+01   1.2433594e+01   1.2437500e+01   1.2441406e+01   1.2445313e+01   1.2449219e+01   1.2453125e+01   1.2457031e+01   1.2460938e+01   1.2464844e+01   1.2468750e+01   1.2472656e+01   1.2476563e+01   1.2480469e+01   1.2484375e+01   1.2488281e+01   1.2492188e+01   1.2496094e+01   1.2500000e+01   1.2503906e+01   1.2507813e+01   1.2511719e+01   1.2515625e+01   1.2519531e+01   1.2523438e+01   1.2527344e+01   1.2531250e+01   1.2535156e+01   1.2539063e+01   1.2542969e+01   1.2546875e+01   1.2550781e+01   1.2554688e+01   1.2558594e+01   1.2562500e+01   1.2566406e+01   1.2570313e+01   1.2574219e+01   1.2578125e+01   1.2582031e+01   1.2585938e+01   1.2589844e+01   1.2593750e+01   1.2597656e+01   1.2601563e+01   1.2605469e+01   1.2609375e+01   1.2613281e+01   1.2617188e+01   1.2621094e+01   1.2625000e+01   1.2628906e+01   1.2632813e+01   1.2636719e+01   1.2640625e+01   1.2644531e+01   1.2648438e+01   1.2652344e+01   1.2656250e+01   1.2660156e+01   1.2664063e+01   1.2667969e+01   1.2671875e+01   1.2675781e+01   1.2679688e+01   1.2683594e+01   1.2687500e+01   1.2691406e+01   1.2695313e+01   1.2699219e+01   1.2703125e+01   1.2707031e+01   1.2710938e+01   1.2714844e+01   1.2718750e+01   1.2722656e+01   1.2726563e+01   1.2730469e+01   1.2734375e+01   1.2738281e+01   1.2742188e+01   1.2746094e+01   1.2750000e+01   1.2753906e+01   1.2757813e+01   1.2761719e+01   1.2765625e+01   1.2769531e+01   1.2773438e+01   1.2777344e+01   1.2781250e+01   1.2785156e+01   1.2789063e+01   1.2792969e+01   1.2796875e+01   1.2800781e+01   1.2804688e+01   1.2808594e+01   1.2812500e+01   1.2816406e+01   1.2820313e+01   1.2824219e+01   1.2828125e+01   1.2832031e+01   1.2835938e+01   1.2839844e+01   1.2843750e+01   1.2847656e+01   1.2851563e+01   1.2855469e+01   1.2859375e+01   1.2863281e+01   1.2867188e+01   1.2871094e+01   1.2875000e+01   1.2878906e+01   1.2882813e+01   1.2886719e+01   1.2890625e+01   1.2894531e+01   1.2898438e+01   1.2902344e+01   1.2906250e+01   1.2910156e+01   1.2914063e+01   1.2917969e+01   1.2921875e+01   1.2925781e+01   1.2929688e+01   1.2933594e+01   1.2937500e+01   1.2941406e+01   1.2945313e+01   1.2949219e+01   1.2953125e+01   1.2957031e+01   1.2960938e+01   1.2964844e+01   1.2968750e+01   1.2972656e+01   1.2976563e+01   1.2980469e+01   1.2984375e+01   1.2988281e+01   1.2992188e+01   1.2996094e+01   1.3000000e+01   1.3003906e+01   1.3007813e+01   1.3011719e+01   1.3015625e+01   1.3019531e+01   1.3023438e+01   1.3027344e+01   1.3031250e+01   1.3035156e+01   1.3039063e+01   1.3042969e+01   1.3046875e+01   1.3050781e+01   1.3054688e+01   1.3058594e+01   1.3062500e+01   1.3066406e+01   1.3070313e+01   1.3074219e+01   1.3078125e+01   1.3082031e+01   1.3085938e+01   1.3089844e+01   1.3093750e+01   1.3097656e+01   1.3101563e+01   1.3105469e+01   1.3109375e+01   1.3113281e+01   1.3117188e+01   1.3121094e+01   1.3125000e+01   1.3128906e+01   1.3132813e+01   1.3136719e+01   1.3140625e+01   1.3144531e+01   1.3148438e+01   1.3152344e+01   1.3156250e+01   1.3160156e+01   1.3164063e+01   1.3167969e+01   1.3171875e+01   1.3175781e+01   1.3179688e+01   1.3183594e+01   1.3187500e+01   1.3191406e+01   1.3195313e+01   1.3199219e+01   1.3203125e+01   1.3207031e+01   1.3210938e+01   1.3214844e+01   1.3218750e+01   1.3222656e+01   1.3226563e+01   1.3230469e+01   1.3234375e+01   1.3238281e+01   1.3242188e+01   1.3246094e+01   1.3250000e+01   1.3253906e+01   1.3257813e+01   1.3261719e+01   1.3265625e+01   1.3269531e+01   1.3273438e+01   1.3277344e+01   1.3281250e+01   1.3285156e+01   1.3289063e+01   1.3292969e+01   1.3296875e+01   1.3300781e+01   1.3304688e+01   1.3308594e+01   1.3312500e+01   1.3316406e+01   1.3320313e+01   1.3324219e+01   1.3328125e+01   1.3332031e+01   1.3335938e+01   1.3339844e+01   1.3343750e+01   1.3347656e+01   1.3351563e+01   1.3355469e+01   1.3359375e+01   1.3363281e+01   1.3367188e+01   1.3371094e+01   1.3375000e+01   1.3378906e+01   1.3382813e+01   1.3386719e+01   1.3390625e+01   1.3394531e+01   1.3398438e+01   1.3402344e+01   1.3406250e+01   1.3410156e+01   1.3414063e+01   1.3417969e+01   1.3421875e+01   1.3425781e+01   1.3429688e+01   1.3433594e+01   1.3437500e+01   1.3441406e+01   1.3445313e+01   1.3449219e+01   1.3453125e+01   1.3457031e+01   1.3460938e+01   1.3464844e+01   1.3468750e+01   1.3472656e+01   1.3476563e+01   1.3480469e+01   1.3484375e+01   1.3488281e+01   1.3492188e+01   1.3496094e+01   1.3500000e+01   1.3503906e+01   1.3507813e+01   1.3511719e+01   1.3515625e+01   1.3519531e+01   1.3523438e+01   1.3527344e+01   1.3531250e+01   1.3535156e+01   1.3539063e+01   1.3542969e+01   1.3546875e+01   1.3550781e+01   1.3554688e+01   1.3558594e+01   1.3562500e+01   1.3566406e+01   1.3570313e+01   1.3574219e+01   1.3578125e+01   1.3582031e+01   1.3585938e+01   1.3589844e+01   1.3593750e+01   1.3597656e+01   1.3601563e+01   1.3605469e+01   1.3609375e+01   1.3613281e+01   1.3617188e+01   1.3621094e+01   1.3625000e+01   1.3628906e+01   1.3632813e+01   1.3636719e+01   1.3640625e+01   1.3644531e+01   1.3648438e+01   1.3652344e+01   1.3656250e+01   1.3660156e+01   1.3664063e+01   1.3667969e+01   1.3671875e+01   1.3675781e+01   1.3679688e+01   1.3683594e+01   1.3687500e+01   1.3691406e+01   1.3695313e+01   1.3699219e+01   1.3703125e+01   1.3707031e+01   1.3710938e+01   1.3714844e+01   1.3718750e+01   1.3722656e+01   1.3726563e+01   1.3730469e+01   1.3734375e+01   1.3738281e+01   1.3742188e+01   1.3746094e+01   1.3750000e+01   1.3753906e+01   1.3757813e+01   1.3761719e+01   1.3765625e+01   1.3769531e+01   1.3773438e+01   1.3777344e+01   1.3781250e+01   1.3785156e+01   1.3789063e+01   1.3792969e+01   1.3796875e+01   1.3800781e+01   1.3804688e+01   1.3808594e+01   1.3812500e+01   1.3816406e+01   1.3820313e+01   1.3824219e+01   1.3828125e+01   1.3832031e+01   1.3835938e+01   1.3839844e+01   1.3843750e+01   1.3847656e+01   1.3851563e+01   1.3855469e+01   1.3859375e+01   1.3863281e+01   1.3867188e+01   1.3871094e+01   1.3875000e+01   1.3878906e+01   1.3882813e+01   1.3886719e+01   1.3890625e+01   1.3894531e+01   1.3898438e+01   1.3902344e+01   1.3906250e+01   1.3910156e+01   1.3914063e+01   1.3917969e+01   1.3921875e+01   1.3925781e+01   1.3929688e+01   1.3933594e+01   1.3937500e+01   1.3941406e+01   1.3945313e+01   1.3949219e+01   1.3953125e+01   1.3957031e+01   1.3960938e+01   1.3964844e+01   1.3968750e+01   1.3972656e+01   1.3976563e+01   1.3980469e+01   1.3984375e+01   1.3988281e+01   1.3992188e+01   1.3996094e+01   1.4000000e+01   1.4003906e+01   1.4007813e+01   1.4011719e+01   1.4015625e+01   1.4019531e+01   1.4023438e+01   1.4027344e+01   1.4031250e+01   1.4035156e+01   1.4039063e+01   1.4042969e+01   1.4046875e+01   1.4050781e+01   1.4054688e+01   1.4058594e+01   1.4062500e+01   1.4066406e+01   1.4070313e+01   1.4074219e+01   1.4078125e+01   1.4082031e+01   1.4085938e+01   1.4089844e+01   1.4093750e+01   1.4097656e+01   1.4101563e+01   1.4105469e+01   1.4109375e+01   1.4113281e+01   1.4117188e+01   1.4121094e+01   1.4125000e+01   1.4128906e+01   1.4132813e+01   1.4136719e+01   1.4140625e+01   1.4144531e+01   1.4148438e+01   1.4152344e+01   1.4156250e+01   1.4160156e+01   1.4164063e+01   1.4167969e+01   1.4171875e+01   1.4175781e+01   1.4179688e+01   1.4183594e+01   1.4187500e+01   1.4191406e+01   1.4195313e+01   1.4199219e+01   1.4203125e+01   1.4207031e+01   1.4210938e+01   1.4214844e+01   1.4218750e+01   1.4222656e+01   1.4226563e+01   1.4230469e+01   1.4234375e+01   1.4238281e+01   1.4242188e+01   1.4246094e+01   1.4250000e+01   1.4253906e+01   1.4257813e+01   1.4261719e+01   1.4265625e+01   1.4269531e+01   1.4273438e+01   1.4277344e+01   1.4281250e+01   1.4285156e+01   1.4289063e+01   1.4292969e+01   1.4296875e+01   1.4300781e+01   1.4304688e+01   1.4308594e+01   1.4312500e+01   1.4316406e+01   1.4320313e+01   1.4324219e+01   1.4328125e+01   1.4332031e+01   1.4335938e+01   1.4339844e+01   1.4343750e+01   1.4347656e+01   1.4351563e+01   1.4355469e+01   1.4359375e+01   1.4363281e+01   1.4367188e+01   1.4371094e+01   1.4375000e+01   1.4378906e+01   1.4382813e+01   1.4386719e+01   1.4390625e+01   1.4394531e+01   1.4398438e+01   1.4402344e+01   1.4406250e+01   1.4410156e+01   1.4414063e+01   1.4417969e+01   1.4421875e+01   1.4425781e+01   1.4429688e+01   1.4433594e+01   1.4437500e+01   1.4441406e+01   1.4445313e+01   1.4449219e+01   1.4453125e+01   1.4457031e+01   1.4460938e+01   1.4464844e+01   1.4468750e+01   1.4472656e+01   1.4476563e+01   1.4480469e+01   1.4484375e+01   1.4488281e+01   1.4492188e+01   1.4496094e+01   1.4500000e+01   1.4503906e+01   1.4507813e+01   1.4511719e+01   1.4515625e+01   1.4519531e+01   1.4523438e+01   1.4527344e+01   1.4531250e+01   1.4535156e+01   1.4539063e+01   1.4542969e+01   1.4546875e+01   1.4550781e+01   1.4554688e+01   1.4558594e+01   1.4562500e+01   1.4566406e+01   1.4570313e+01   1.4574219e+01   1.4578125e+01   1.4582031e+01   1.4585938e+01   1.4589844e+01   1.4593750e+01   1.4597656e+01   1.4601563e+01   1.4605469e+01   1.4609375e+01   1.4613281e+01   1.4617188e+01   1.4621094e+01   1.4625000e+01   1.4628906e+01   1.4632813e+01   1.4636719e+01   1.4640625e+01   1.4644531e+01   1.4648438e+01   1.4652344e+01   1.4656250e+01   1.4660156e+01   1.4664063e+01   1.4667969e+01   1.4671875e+01   1.4675781e+01   1.4679688e+01   1.4683594e+01   1.4687500e+01   1.4691406e+01   1.4695313e+01   1.4699219e+01   1.4703125e+01   1.4707031e+01   1.4710938e+01   1.4714844e+01   1.4718750e+01   1.4722656e+01   1.4726563e+01   1.4730469e+01   1.4734375e+01   1.4738281e+01   1.4742188e+01   1.4746094e+01   1.4750000e+01   1.4753906e+01   1.4757813e+01   1.4761719e+01   1.4765625e+01   1.4769531e+01   1.4773438e+01   1.4777344e+01   1.4781250e+01   1.4785156e+01   1.4789063e+01   1.4792969e+01   1.4796875e+01   1.4800781e+01   1.4804688e+01   1.4808594e+01   1.4812500e+01   1.4816406e+01   1.4820313e+01   1.4824219e+01   1.4828125e+01   1.4832031e+01   1.4835938e+01   1.4839844e+01   1.4843750e+01   1.4847656e+01   1.4851563e+01   1.4855469e+01   1.4859375e+01   1.4863281e+01   1.4867188e+01   1.4871094e+01   1.4875000e+01   1.4878906e+01   1.4882813e+01   1.4886719e+01   1.4890625e+01   1.4894531e+01   1.4898438e+01   1.4902344e+01   1.4906250e+01   1.4910156e+01   1.4914063e+01   1.4917969e+01   1.4921875e+01   1.4925781e+01   1.4929688e+01   1.4933594e+01   1.4937500e+01   1.4941406e+01   1.4945313e+01   1.4949219e+01   1.4953125e+01   1.4957031e+01   1.4960938e+01   1.4964844e+01   1.4968750e+01   1.4972656e+01   1.4976563e+01   1.4980469e+01   1.4984375e+01   1.4988281e+01   1.4992188e+01   1.4996094e+01   1.5000000e+01   1.5003906e+01   1.5007813e+01   1.5011719e+01   1.5015625e+01   1.5019531e+01   1.5023438e+01   1.5027344e+01   1.5031250e+01   1.5035156e+01   1.5039063e+01   1.5042969e+01   1.5046875e+01   1.5050781e+01   1.5054688e+01   1.5058594e+01   1.5062500e+01   1.5066406e+01   1.5070313e+01   1.5074219e+01   1.5078125e+01   1.5082031e+01   1.5085938e+01   1.5089844e+01   1.5093750e+01   1.5097656e+01   1.5101563e+01   1.5105469e+01   1.5109375e+01   1.5113281e+01   1.5117188e+01   1.5121094e+01   1.5125000e+01   1.5128906e+01   1.5132813e+01   1.5136719e+01   1.5140625e+01   1.5144531e+01   1.5148438e+01   1.5152344e+01   1.5156250e+01   1.5160156e+01   1.5164063e+01   1.5167969e+01   1.5171875e+01   1.5175781e+01   1.5179688e+01   1.5183594e+01   1.5187500e+01   1.5191406e+01   1.5195313e+01   1.5199219e+01   1.5203125e+01   1.5207031e+01   1.5210938e+01   1.5214844e+01   1.5218750e+01   1.5222656e+01   1.5226563e+01   1.5230469e+01   1.5234375e+01   1.5238281e+01   1.5242188e+01   1.5246094e+01   1.5250000e+01   1.5253906e+01   1.5257813e+01   1.5261719e+01   1.5265625e+01   1.5269531e+01   1.5273438e+01   1.5277344e+01   1.5281250e+01   1.5285156e+01   1.5289063e+01   1.5292969e+01   1.5296875e+01   1.5300781e+01   1.5304688e+01   1.5308594e+01   1.5312500e+01   1.5316406e+01   1.5320313e+01   1.5324219e+01   1.5328125e+01   1.5332031e+01   1.5335938e+01   1.5339844e+01   1.5343750e+01   1.5347656e+01   1.5351563e+01   1.5355469e+01   1.5359375e+01   1.5363281e+01   1.5367188e+01   1.5371094e+01   1.5375000e+01   1.5378906e+01   1.5382813e+01   1.5386719e+01   1.5390625e+01   1.5394531e+01   1.5398438e+01   1.5402344e+01   1.5406250e+01   1.5410156e+01   1.5414063e+01   1.5417969e+01   1.5421875e+01   1.5425781e+01   1.5429688e+01   1.5433594e+01   1.5437500e+01   1.5441406e+01   1.5445313e+01   1.5449219e+01   1.5453125e+01   1.5457031e+01   1.5460938e+01   1.5464844e+01   1.5468750e+01   1.5472656e+01   1.5476563e+01   1.5480469e+01   1.5484375e+01   1.5488281e+01   1.5492188e+01   1.5496094e+01   1.5500000e+01   1.5503906e+01   1.5507813e+01   1.5511719e+01   1.5515625e+01   1.5519531e+01   1.5523438e+01   1.5527344e+01   1.5531250e+01   1.5535156e+01   1.5539063e+01   1.5542969e+01   1.5546875e+01   1.5550781e+01   1.5554688e+01   1.5558594e+01   1.5562500e+01   1.5566406e+01   1.5570313e+01   1.5574219e+01   1.5578125e+01   1.5582031e+01   1.5585938e+01   1.5589844e+01   1.5593750e+01   1.5597656e+01   1.5601563e+01   1.5605469e+01   1.5609375e+01   1.5613281e+01   1.5617188e+01   1.5621094e+01   1.5625000e+01   1.5628906e+01   1.5632813e+01   1.5636719e+01   1.5640625e+01   1.5644531e+01   1.5648438e+01   1.5652344e+01   1.5656250e+01   1.5660156e+01   1.5664063e+01   1.5667969e+01   1.5671875e+01   1.5675781e+01   1.5679688e+01   1.5683594e+01   1.5687500e+01   1.5691406e+01   1.5695313e+01   1.5699219e+01   1.5703125e+01   1.5707031e+01   1.5710938e+01   1.5714844e+01   1.5718750e+01   1.5722656e+01   1.5726563e+01   1.5730469e+01   1.5734375e+01   1.5738281e+01   1.5742188e+01   1.5746094e+01   1.5750000e+01   1.5753906e+01   1.5757813e+01   1.5761719e+01   1.5765625e+01   1.5769531e+01   1.5773438e+01   1.5777344e+01   1.5781250e+01   1.5785156e+01   1.5789063e+01   1.5792969e+01   1.5796875e+01   1.5800781e+01   1.5804688e+01   1.5808594e+01   1.5812500e+01   1.5816406e+01   1.5820313e+01   1.5824219e+01   1.5828125e+01   1.5832031e+01   1.5835938e+01   1.5839844e+01   1.5843750e+01   1.5847656e+01   1.5851563e+01   1.5855469e+01   1.5859375e+01   1.5863281e+01   1.5867188e+01   1.5871094e+01   1.5875000e+01   1.5878906e+01   1.5882813e+01   1.5886719e+01   1.5890625e+01   1.5894531e+01   1.5898438e+01   1.5902344e+01   1.5906250e+01   1.5910156e+01   1.5914063e+01   1.5917969e+01   1.5921875e+01   1.5925781e+01   1.5929688e+01   1.5933594e+01   1.5937500e+01   1.5941406e+01   1.5945313e+01   1.5949219e+01   1.5953125e+01   1.5957031e+01   1.5960938e+01   1.5964844e+01   1.5968750e+01   1.5972656e+01   1.5976563e+01   1.5980469e+01   1.5984375e+01   1.5988281e+01   1.5992188e+01   1.5996094e+01   1.6000000e+01   1.6003906e+01   1.6007813e+01   1.6011719e+01   1.6015625e+01   1.6019531e+01   1.6023438e+01   1.6027344e+01   1.6031250e+01   1.6035156e+01   1.6039063e+01   1.6042969e+01   1.6046875e+01   1.6050781e+01   1.6054688e+01   1.6058594e+01   1.6062500e+01   1.6066406e+01   1.6070313e+01   1.6074219e+01   1.6078125e+01   1.6082031e+01   1.6085938e+01   1.6089844e+01   1.6093750e+01   1.6097656e+01   1.6101563e+01   1.6105469e+01   1.6109375e+01   1.6113281e+01   1.6117188e+01   1.6121094e+01   1.6125000e+01   1.6128906e+01   1.6132813e+01   1.6136719e+01   1.6140625e+01   1.6144531e+01   1.6148438e+01   1.6152344e+01   1.6156250e+01   1.6160156e+01   1.6164063e+01   1.6167969e+01   1.6171875e+01   1.6175781e+01   1.6179688e+01   1.6183594e+01   1.6187500e+01   1.6191406e+01   1.6195313e+01   1.6199219e+01   1.6203125e+01   1.6207031e+01   1.6210938e+01   1.6214844e+01   1.6218750e+01   1.6222656e+01   1.6226563e+01   1.6230469e+01   1.6234375e+01   1.6238281e+01   1.6242188e+01   1.6246094e+01   1.6250000e+01   1.6253906e+01   1.6257813e+01   1.6261719e+01   1.6265625e+01   1.6269531e+01   1.6273438e+01   1.6277344e+01   1.6281250e+01   1.6285156e+01   1.6289063e+01   1.6292969e+01   1.6296875e+01   1.6300781e+01   1.6304688e+01   1.6308594e+01   1.6312500e+01   1.6316406e+01   1.6320313e+01   1.6324219e+01   1.6328125e+01   1.6332031e+01   1.6335938e+01   1.6339844e+01   1.6343750e+01   1.6347656e+01   1.6351563e+01   1.6355469e+01   1.6359375e+01   1.6363281e+01   1.6367188e+01   1.6371094e+01   1.6375000e+01   1.6378906e+01   1.6382813e+01   1.6386719e+01   1.6390625e+01   1.6394531e+01   1.6398438e+01   1.6402344e+01   1.6406250e+01   1.6410156e+01   1.6414063e+01   1.6417969e+01   1.6421875e+01   1.6425781e+01   1.6429688e+01   1.6433594e+01   1.6437500e+01   1.6441406e+01   1.6445313e+01   1.6449219e+01   1.6453125e+01   1.6457031e+01   1.6460938e+01   1.6464844e+01   1.6468750e+01   1.6472656e+01   1.6476563e+01   1.6480469e+01   1.6484375e+01   1.6488281e+01   1.6492188e+01   1.6496094e+01   1.6500000e+01   1.6503906e+01   1.6507813e+01   1.6511719e+01   1.6515625e+01   1.6519531e+01   1.6523438e+01   1.6527344e+01   1.6531250e+01   1.6535156e+01   1.6539063e+01   1.6542969e+01   1.6546875e+01   1.6550781e+01   1.6554688e+01   1.6558594e+01   1.6562500e+01   1.6566406e+01   1.6570313e+01   1.6574219e+01   1.6578125e+01   1.6582031e+01   1.6585938e+01   1.6589844e+01   1.6593750e+01   1.6597656e+01   1.6601563e+01   1.6605469e+01   1.6609375e+01   1.6613281e+01   1.6617188e+01   1.6621094e+01   1.6625000e+01   1.6628906e+01   1.6632813e+01   1.6636719e+01   1.6640625e+01   1.6644531e+01   1.6648438e+01   1.6652344e+01   1.6656250e+01   1.6660156e+01   1.6664063e+01   1.6667969e+01   1.6671875e+01   1.6675781e+01   1.6679688e+01   1.6683594e+01   1.6687500e+01   1.6691406e+01   1.6695313e+01   1.6699219e+01   1.6703125e+01   1.6707031e+01   1.6710938e+01   1.6714844e+01   1.6718750e+01   1.6722656e+01   1.6726563e+01   1.6730469e+01   1.6734375e+01   1.6738281e+01   1.6742188e+01   1.6746094e+01   1.6750000e+01   1.6753906e+01   1.6757813e+01   1.6761719e+01   1.6765625e+01   1.6769531e+01   1.6773438e+01   1.6777344e+01   1.6781250e+01   1.6785156e+01   1.6789063e+01   1.6792969e+01   1.6796875e+01   1.6800781e+01   1.6804688e+01   1.6808594e+01   1.6812500e+01   1.6816406e+01   1.6820313e+01   1.6824219e+01   1.6828125e+01   1.6832031e+01   1.6835938e+01   1.6839844e+01   1.6843750e+01   1.6847656e+01   1.6851563e+01   1.6855469e+01   1.6859375e+01   1.6863281e+01   1.6867188e+01   1.6871094e+01   1.6875000e+01   1.6878906e+01   1.6882813e+01   1.6886719e+01   1.6890625e+01   1.6894531e+01   1.6898438e+01   1.6902344e+01   1.6906250e+01   1.6910156e+01   1.6914063e+01   1.6917969e+01   1.6921875e+01   1.6925781e+01   1.6929688e+01   1.6933594e+01   1.6937500e+01   1.6941406e+01   1.6945313e+01   1.6949219e+01   1.6953125e+01   1.6957031e+01   1.6960938e+01   1.6964844e+01   1.6968750e+01   1.6972656e+01   1.6976563e+01   1.6980469e+01   1.6984375e+01   1.6988281e+01   1.6992188e+01   1.6996094e+01   1.7000000e+01   1.7003906e+01   1.7007813e+01   1.7011719e+01   1.7015625e+01   1.7019531e+01   1.7023438e+01   1.7027344e+01   1.7031250e+01   1.7035156e+01   1.7039063e+01   1.7042969e+01   1.7046875e+01   1.7050781e+01   1.7054688e+01   1.7058594e+01   1.7062500e+01   1.7066406e+01   1.7070313e+01   1.7074219e+01   1.7078125e+01   1.7082031e+01   1.7085938e+01   1.7089844e+01   1.7093750e+01   1.7097656e+01   1.7101563e+01   1.7105469e+01   1.7109375e+01   1.7113281e+01   1.7117188e+01   1.7121094e+01   1.7125000e+01   1.7128906e+01   1.7132813e+01   1.7136719e+01   1.7140625e+01   1.7144531e+01   1.7148438e+01   1.7152344e+01   1.7156250e+01   1.7160156e+01   1.7164063e+01   1.7167969e+01   1.7171875e+01   1.7175781e+01   1.7179688e+01   1.7183594e+01   1.7187500e+01   1.7191406e+01   1.7195313e+01   1.7199219e+01   1.7203125e+01   1.7207031e+01   1.7210938e+01   1.7214844e+01   1.7218750e+01   1.7222656e+01   1.7226563e+01   1.7230469e+01   1.7234375e+01   1.7238281e+01   1.7242188e+01   1.7246094e+01   1.7250000e+01   1.7253906e+01   1.7257813e+01   1.7261719e+01   1.7265625e+01   1.7269531e+01   1.7273438e+01   1.7277344e+01   1.7281250e+01   1.7285156e+01   1.7289063e+01   1.7292969e+01   1.7296875e+01   1.7300781e+01   1.7304688e+01   1.7308594e+01   1.7312500e+01   1.7316406e+01   1.7320313e+01   1.7324219e+01   1.7328125e+01   1.7332031e+01   1.7335938e+01   1.7339844e+01   1.7343750e+01   1.7347656e+01   1.7351563e+01   1.7355469e+01   1.7359375e+01   1.7363281e+01   1.7367188e+01   1.7371094e+01   1.7375000e+01   1.7378906e+01   1.7382813e+01   1.7386719e+01   1.7390625e+01   1.7394531e+01   1.7398438e+01   1.7402344e+01   1.7406250e+01   1.7410156e+01   1.7414063e+01   1.7417969e+01   1.7421875e+01   1.7425781e+01   1.7429688e+01   1.7433594e+01   1.7437500e+01   1.7441406e+01   1.7445313e+01   1.7449219e+01   1.7453125e+01   1.7457031e+01   1.7460938e+01   1.7464844e+01   1.7468750e+01   1.7472656e+01   1.7476563e+01   1.7480469e+01   1.7484375e+01   1.7488281e+01   1.7492188e+01   1.7496094e+01   1.7500000e+01   1.7503906e+01   1.7507813e+01   1.7511719e+01   1.7515625e+01   1.7519531e+01   1.7523438e+01   1.7527344e+01   1.7531250e+01   1.7535156e+01   1.7539063e+01   1.7542969e+01   1.7546875e+01   1.7550781e+01   1.7554688e+01   1.7558594e+01   1.7562500e+01   1.7566406e+01   1.7570313e+01   1.7574219e+01   1.7578125e+01   1.7582031e+01   1.7585938e+01   1.7589844e+01   1.7593750e+01   1.7597656e+01   1.7601563e+01   1.7605469e+01   1.7609375e+01   1.7613281e+01   1.7617188e+01   1.7621094e+01   1.7625000e+01   1.7628906e+01   1.7632813e+01   1.7636719e+01   1.7640625e+01   1.7644531e+01   1.7648438e+01   1.7652344e+01   1.7656250e+01   1.7660156e+01   1.7664063e+01   1.7667969e+01   1.7671875e+01   1.7675781e+01   1.7679688e+01   1.7683594e+01   1.7687500e+01   1.7691406e+01   1.7695313e+01   1.7699219e+01   1.7703125e+01   1.7707031e+01   1.7710938e+01   1.7714844e+01   1.7718750e+01   1.7722656e+01   1.7726563e+01   1.7730469e+01   1.7734375e+01   1.7738281e+01   1.7742188e+01   1.7746094e+01   1.7750000e+01   1.7753906e+01   1.7757813e+01   1.7761719e+01   1.7765625e+01   1.7769531e+01   1.7773438e+01   1.7777344e+01   1.7781250e+01   1.7785156e+01   1.7789063e+01   1.7792969e+01   1.7796875e+01   1.7800781e+01   1.7804688e+01   1.7808594e+01   1.7812500e+01   1.7816406e+01   1.7820313e+01   1.7824219e+01   1.7828125e+01   1.7832031e+01   1.7835938e+01   1.7839844e+01   1.7843750e+01   1.7847656e+01   1.7851563e+01   1.7855469e+01   1.7859375e+01   1.7863281e+01   1.7867188e+01   1.7871094e+01   1.7875000e+01   1.7878906e+01   1.7882813e+01   1.7886719e+01   1.7890625e+01   1.7894531e+01   1.7898438e+01   1.7902344e+01   1.7906250e+01   1.7910156e+01   1.7914063e+01   1.7917969e+01   1.7921875e+01   1.7925781e+01   1.7929688e+01   1.7933594e+01   1.7937500e+01   1.7941406e+01   1.7945313e+01   1.7949219e+01   1.7953125e+01   1.7957031e+01   1.7960938e+01   1.7964844e+01   1.7968750e+01   1.7972656e+01   1.7976563e+01   1.7980469e+01   1.7984375e+01   1.7988281e+01   1.7992188e+01   1.7996094e+01   1.8000000e+01   1.8003906e+01   1.8007813e+01   1.8011719e+01   1.8015625e+01   1.8019531e+01   1.8023438e+01   1.8027344e+01   1.8031250e+01   1.8035156e+01   1.8039063e+01   1.8042969e+01   1.8046875e+01   1.8050781e+01   1.8054688e+01   1.8058594e+01   1.8062500e+01   1.8066406e+01   1.8070313e+01   1.8074219e+01   1.8078125e+01   1.8082031e+01   1.8085938e+01   1.8089844e+01   1.8093750e+01   1.8097656e+01   1.8101563e+01   1.8105469e+01   1.8109375e+01   1.8113281e+01   1.8117188e+01   1.8121094e+01   1.8125000e+01   1.8128906e+01   1.8132813e+01   1.8136719e+01   1.8140625e+01   1.8144531e+01   1.8148438e+01   1.8152344e+01   1.8156250e+01   1.8160156e+01   1.8164063e+01   1.8167969e+01   1.8171875e+01   1.8175781e+01   1.8179688e+01   1.8183594e+01   1.8187500e+01   1.8191406e+01   1.8195313e+01   1.8199219e+01   1.8203125e+01   1.8207031e+01   1.8210938e+01   1.8214844e+01   1.8218750e+01   1.8222656e+01   1.8226563e+01   1.8230469e+01   1.8234375e+01   1.8238281e+01   1.8242188e+01   1.8246094e+01   1.8250000e+01   1.8253906e+01   1.8257813e+01   1.8261719e+01   1.8265625e+01   1.8269531e+01   1.8273438e+01   1.8277344e+01   1.8281250e+01   1.8285156e+01   1.8289063e+01   1.8292969e+01   1.8296875e+01   1.8300781e+01   1.8304688e+01   1.8308594e+01   1.8312500e+01   1.8316406e+01   1.8320313e+01   1.8324219e+01   1.8328125e+01   1.8332031e+01   1.8335938e+01   1.8339844e+01   1.8343750e+01   1.8347656e+01   1.8351563e+01   1.8355469e+01   1.8359375e+01   1.8363281e+01   1.8367188e+01   1.8371094e+01   1.8375000e+01   1.8378906e+01   1.8382813e+01   1.8386719e+01   1.8390625e+01   1.8394531e+01   1.8398438e+01   1.8402344e+01   1.8406250e+01   1.8410156e+01   1.8414063e+01   1.8417969e+01   1.8421875e+01   1.8425781e+01   1.8429688e+01   1.8433594e+01   1.8437500e+01   1.8441406e+01   1.8445313e+01   1.8449219e+01   1.8453125e+01   1.8457031e+01   1.8460938e+01   1.8464844e+01   1.8468750e+01   1.8472656e+01   1.8476563e+01   1.8480469e+01   1.8484375e+01   1.8488281e+01   1.8492188e+01   1.8496094e+01   1.8500000e+01   1.8503906e+01   1.8507813e+01   1.8511719e+01   1.8515625e+01   1.8519531e+01   1.8523438e+01   1.8527344e+01   1.8531250e+01   1.8535156e+01   1.8539063e+01   1.8542969e+01   1.8546875e+01   1.8550781e+01   1.8554688e+01   1.8558594e+01   1.8562500e+01   1.8566406e+01   1.8570313e+01   1.8574219e+01   1.8578125e+01   1.8582031e+01   1.8585938e+01   1.8589844e+01   1.8593750e+01   1.8597656e+01   1.8601563e+01   1.8605469e+01   1.8609375e+01   1.8613281e+01   1.8617188e+01   1.8621094e+01   1.8625000e+01   1.8628906e+01   1.8632813e+01   1.8636719e+01   1.8640625e+01   1.8644531e+01   1.8648438e+01   1.8652344e+01   1.8656250e+01   1.8660156e+01   1.8664063e+01   1.8667969e+01   1.8671875e+01   1.8675781e+01   1.8679688e+01   1.8683594e+01   1.8687500e+01   1.8691406e+01   1.8695313e+01   1.8699219e+01   1.8703125e+01   1.8707031e+01   1.8710938e+01   1.8714844e+01   1.8718750e+01   1.8722656e+01   1.8726563e+01   1.8730469e+01   1.8734375e+01   1.8738281e+01   1.8742188e+01   1.8746094e+01   1.8750000e+01   1.8753906e+01   1.8757813e+01   1.8761719e+01   1.8765625e+01   1.8769531e+01   1.8773438e+01   1.8777344e+01   1.8781250e+01   1.8785156e+01   1.8789063e+01   1.8792969e+01   1.8796875e+01   1.8800781e+01   1.8804688e+01   1.8808594e+01   1.8812500e+01   1.8816406e+01   1.8820313e+01   1.8824219e+01   1.8828125e+01   1.8832031e+01   1.8835938e+01   1.8839844e+01   1.8843750e+01   1.8847656e+01   1.8851563e+01   1.8855469e+01   1.8859375e+01   1.8863281e+01   1.8867188e+01   1.8871094e+01   1.8875000e+01   1.8878906e+01   1.8882813e+01   1.8886719e+01   1.8890625e+01   1.8894531e+01   1.8898438e+01   1.8902344e+01   1.8906250e+01   1.8910156e+01   1.8914063e+01   1.8917969e+01   1.8921875e+01   1.8925781e+01   1.8929688e+01   1.8933594e+01   1.8937500e+01   1.8941406e+01   1.8945313e+01   1.8949219e+01   1.8953125e+01   1.8957031e+01   1.8960938e+01   1.8964844e+01   1.8968750e+01   1.8972656e+01   1.8976563e+01   1.8980469e+01   1.8984375e+01   1.8988281e+01   1.8992188e+01   1.8996094e+01   1.9000000e+01   1.9003906e+01   1.9007813e+01   1.9011719e+01   1.9015625e+01   1.9019531e+01   1.9023438e+01   1.9027344e+01   1.9031250e+01   1.9035156e+01   1.9039063e+01   1.9042969e+01   1.9046875e+01   1.9050781e+01   1.9054688e+01   1.9058594e+01   1.9062500e+01   1.9066406e+01   1.9070313e+01   1.9074219e+01   1.9078125e+01   1.9082031e+01   1.9085938e+01   1.9089844e+01   1.9093750e+01   1.9097656e+01   1.9101563e+01   1.9105469e+01   1.9109375e+01   1.9113281e+01   1.9117188e+01   1.9121094e+01   1.9125000e+01   1.9128906e+01   1.9132813e+01   1.9136719e+01   1.9140625e+01   1.9144531e+01   1.9148438e+01   1.9152344e+01   1.9156250e+01   1.9160156e+01   1.9164063e+01   1.9167969e+01   1.9171875e+01   1.9175781e+01   1.9179688e+01   1.9183594e+01   1.9187500e+01   1.9191406e+01   1.9195313e+01   1.9199219e+01   1.9203125e+01   1.9207031e+01   1.9210938e+01   1.9214844e+01   1.9218750e+01   1.9222656e+01   1.9226563e+01   1.9230469e+01   1.9234375e+01   1.9238281e+01   1.9242188e+01   1.9246094e+01   1.9250000e+01   1.9253906e+01   1.9257813e+01   1.9261719e+01   1.9265625e+01   1.9269531e+01   1.9273438e+01   1.9277344e+01   1.9281250e+01   1.9285156e+01   1.9289063e+01   1.9292969e+01   1.9296875e+01   1.9300781e+01   1.9304688e+01   1.9308594e+01   1.9312500e+01   1.9316406e+01   1.9320313e+01   1.9324219e+01   1.9328125e+01   1.9332031e+01   1.9335938e+01   1.9339844e+01   1.9343750e+01   1.9347656e+01   1.9351563e+01   1.9355469e+01   1.9359375e+01   1.9363281e+01   1.9367188e+01   1.9371094e+01   1.9375000e+01   1.9378906e+01   1.9382813e+01   1.9386719e+01   1.9390625e+01   1.9394531e+01   1.9398438e+01   1.9402344e+01   1.9406250e+01   1.9410156e+01   1.9414063e+01   1.9417969e+01   1.9421875e+01   1.9425781e+01   1.9429688e+01   1.9433594e+01   1.9437500e+01   1.9441406e+01   1.9445313e+01   1.9449219e+01   1.9453125e+01   1.9457031e+01   1.9460938e+01   1.9464844e+01   1.9468750e+01   1.9472656e+01   1.9476563e+01   1.9480469e+01   1.9484375e+01   1.9488281e+01   1.9492188e+01   1.9496094e+01   1.9500000e+01   1.9503906e+01   1.9507813e+01   1.9511719e+01   1.9515625e+01   1.9519531e+01   1.9523438e+01   1.9527344e+01   1.9531250e+01   1.9535156e+01   1.9539063e+01   1.9542969e+01   1.9546875e+01   1.9550781e+01   1.9554688e+01   1.9558594e+01   1.9562500e+01   1.9566406e+01   1.9570313e+01   1.9574219e+01   1.9578125e+01   1.9582031e+01   1.9585938e+01   1.9589844e+01   1.9593750e+01   1.9597656e+01   1.9601563e+01   1.9605469e+01   1.9609375e+01   1.9613281e+01   1.9617188e+01   1.9621094e+01   1.9625000e+01   1.9628906e+01   1.9632813e+01   1.9636719e+01   1.9640625e+01   1.9644531e+01   1.9648438e+01   1.9652344e+01   1.9656250e+01   1.9660156e+01   1.9664063e+01   1.9667969e+01   1.9671875e+01   1.9675781e+01   1.9679688e+01   1.9683594e+01   1.9687500e+01   1.9691406e+01   1.9695313e+01   1.9699219e+01   1.9703125e+01   1.9707031e+01   1.9710938e+01   1.9714844e+01   1.9718750e+01   1.9722656e+01   1.9726563e+01   1.9730469e+01   1.9734375e+01   1.9738281e+01   1.9742188e+01   1.9746094e+01   1.9750000e+01   1.9753906e+01   1.9757813e+01   1.9761719e+01   1.9765625e+01   1.9769531e+01   1.9773438e+01   1.9777344e+01   1.9781250e+01   1.9785156e+01   1.9789063e+01   1.9792969e+01   1.9796875e+01   1.9800781e+01   1.9804688e+01   1.9808594e+01   1.9812500e+01   1.9816406e+01   1.9820313e+01   1.9824219e+01   1.9828125e+01   1.9832031e+01   1.9835938e+01   1.9839844e+01   1.9843750e+01   1.9847656e+01   1.9851563e+01   1.9855469e+01   1.9859375e+01   1.9863281e+01   1.9867188e+01   1.9871094e+01   1.9875000e+01   1.9878906e+01   1.9882813e+01   1.9886719e+01   1.9890625e+01   1.9894531e+01   1.9898438e+01   1.9902344e+01   1.9906250e+01   1.9910156e+01   1.9914063e+01   1.9917969e+01   1.9921875e+01   1.9925781e+01   1.9929688e+01   1.9933594e+01   1.9937500e+01   1.9941406e+01   1.9945313e+01   1.9949219e+01   1.9953125e+01   1.9957031e+01   1.9960938e+01   1.9964844e+01   1.9968750e+01   1.9972656e+01   1.9976563e+01   1.9980469e+01   1.9984375e+01   1.9988281e+01   1.9992188e+01   1.9996094e+01   2.0000000e+01   2.0003906e+01   2.0007813e+01   2.0011719e+01   2.0015625e+01   2.0019531e+01   2.0023438e+01   2.0027344e+01   2.0031250e+01   2.0035156e+01   2.0039063e+01   2.0042969e+01   2.0046875e+01   2.0050781e+01   2.0054688e+01   2.0058594e+01   2.0062500e+01   2.0066406e+01   2.0070313e+01   2.0074219e+01   2.0078125e+01   2.0082031e+01   2.0085938e+01   2.0089844e+01   2.0093750e+01   2.0097656e+01   2.0101563e+01   2.0105469e+01   2.0109375e+01   2.0113281e+01   2.0117188e+01   2.0121094e+01   2.0125000e+01   2.0128906e+01   2.0132813e+01   2.0136719e+01   2.0140625e+01   2.0144531e+01   2.0148438e+01   2.0152344e+01   2.0156250e+01   2.0160156e+01   2.0164063e+01   2.0167969e+01   2.0171875e+01   2.0175781e+01   2.0179688e+01   2.0183594e+01   2.0187500e+01   2.0191406e+01   2.0195313e+01   2.0199219e+01   2.0203125e+01   2.0207031e+01   2.0210938e+01   2.0214844e+01   2.0218750e+01   2.0222656e+01   2.0226563e+01   2.0230469e+01   2.0234375e+01   2.0238281e+01   2.0242188e+01   2.0246094e+01   2.0250000e+01   2.0253906e+01   2.0257813e+01   2.0261719e+01   2.0265625e+01   2.0269531e+01   2.0273438e+01   2.0277344e+01   2.0281250e+01   2.0285156e+01   2.0289063e+01   2.0292969e+01   2.0296875e+01   2.0300781e+01   2.0304688e+01   2.0308594e+01   2.0312500e+01   2.0316406e+01   2.0320313e+01   2.0324219e+01   2.0328125e+01   2.0332031e+01   2.0335938e+01   2.0339844e+01   2.0343750e+01   2.0347656e+01   2.0351563e+01   2.0355469e+01   2.0359375e+01   2.0363281e+01   2.0367188e+01   2.0371094e+01   2.0375000e+01   2.0378906e+01   2.0382813e+01   2.0386719e+01   2.0390625e+01   2.0394531e+01   2.0398438e+01   2.0402344e+01   2.0406250e+01   2.0410156e+01   2.0414063e+01   2.0417969e+01   2.0421875e+01   2.0425781e+01   2.0429688e+01   2.0433594e+01   2.0437500e+01   2.0441406e+01   2.0445313e+01   2.0449219e+01   2.0453125e+01   2.0457031e+01   2.0460938e+01   2.0464844e+01   2.0468750e+01   2.0472656e+01   2.0476563e+01   2.0480469e+01   2.0484375e+01   2.0488281e+01   2.0492188e+01   2.0496094e+01   2.0500000e+01   2.0503906e+01   2.0507813e+01   2.0511719e+01   2.0515625e+01   2.0519531e+01   2.0523438e+01   2.0527344e+01   2.0531250e+01   2.0535156e+01   2.0539063e+01   2.0542969e+01   2.0546875e+01   2.0550781e+01   2.0554688e+01   2.0558594e+01   2.0562500e+01   2.0566406e+01   2.0570313e+01   2.0574219e+01   2.0578125e+01   2.0582031e+01   2.0585938e+01   2.0589844e+01   2.0593750e+01   2.0597656e+01   2.0601563e+01   2.0605469e+01   2.0609375e+01   2.0613281e+01   2.0617188e+01   2.0621094e+01   2.0625000e+01   2.0628906e+01   2.0632813e+01   2.0636719e+01   2.0640625e+01   2.0644531e+01   2.0648438e+01   2.0652344e+01   2.0656250e+01   2.0660156e+01   2.0664063e+01   2.0667969e+01   2.0671875e+01   2.0675781e+01   2.0679688e+01   2.0683594e+01   2.0687500e+01   2.0691406e+01   2.0695313e+01   2.0699219e+01   2.0703125e+01   2.0707031e+01   2.0710938e+01   2.0714844e+01   2.0718750e+01   2.0722656e+01   2.0726563e+01   2.0730469e+01   2.0734375e+01   2.0738281e+01   2.0742188e+01   2.0746094e+01   2.0750000e+01   2.0753906e+01   2.0757813e+01   2.0761719e+01   2.0765625e+01   2.0769531e+01   2.0773438e+01   2.0777344e+01   2.0781250e+01   2.0785156e+01   2.0789063e+01   2.0792969e+01   2.0796875e+01   2.0800781e+01   2.0804688e+01   2.0808594e+01   2.0812500e+01   2.0816406e+01   2.0820313e+01   2.0824219e+01   2.0828125e+01   2.0832031e+01   2.0835938e+01   2.0839844e+01   2.0843750e+01   2.0847656e+01   2.0851563e+01   2.0855469e+01   2.0859375e+01   2.0863281e+01   2.0867188e+01   2.0871094e+01   2.0875000e+01   2.0878906e+01   2.0882813e+01   2.0886719e+01   2.0890625e+01   2.0894531e+01   2.0898438e+01   2.0902344e+01   2.0906250e+01   2.0910156e+01   2.0914063e+01   2.0917969e+01   2.0921875e+01   2.0925781e+01   2.0929688e+01   2.0933594e+01   2.0937500e+01   2.0941406e+01   2.0945313e+01   2.0949219e+01   2.0953125e+01   2.0957031e+01   2.0960938e+01   2.0964844e+01   2.0968750e+01   2.0972656e+01   2.0976563e+01   2.0980469e+01   2.0984375e+01   2.0988281e+01   2.0992188e+01   2.0996094e+01   2.1000000e+01   2.1003906e+01   2.1007813e+01   2.1011719e+01   2.1015625e+01   2.1019531e+01   2.1023438e+01   2.1027344e+01   2.1031250e+01   2.1035156e+01   2.1039063e+01   2.1042969e+01   2.1046875e+01   2.1050781e+01   2.1054688e+01   2.1058594e+01   2.1062500e+01   2.1066406e+01   2.1070313e+01   2.1074219e+01   2.1078125e+01   2.1082031e+01   2.1085938e+01   2.1089844e+01   2.1093750e+01   2.1097656e+01   2.1101563e+01   2.1105469e+01   2.1109375e+01   2.1113281e+01   2.1117188e+01   2.1121094e+01   2.1125000e+01   2.1128906e+01   2.1132813e+01   2.1136719e+01   2.1140625e+01   2.1144531e+01   2.1148438e+01   2.1152344e+01   2.1156250e+01   2.1160156e+01   2.1164063e+01   2.1167969e+01   2.1171875e+01   2.1175781e+01   2.1179688e+01   2.1183594e+01   2.1187500e+01   2.1191406e+01   2.1195313e+01   2.1199219e+01   2.1203125e+01   2.1207031e+01   2.1210938e+01   2.1214844e+01   2.1218750e+01   2.1222656e+01   2.1226563e+01   2.1230469e+01   2.1234375e+01   2.1238281e+01   2.1242188e+01   2.1246094e+01   2.1250000e+01   2.1253906e+01   2.1257813e+01   2.1261719e+01   2.1265625e+01   2.1269531e+01   2.1273438e+01   2.1277344e+01   2.1281250e+01   2.1285156e+01   2.1289063e+01   2.1292969e+01   2.1296875e+01   2.1300781e+01   2.1304688e+01   2.1308594e+01   2.1312500e+01   2.1316406e+01   2.1320313e+01   2.1324219e+01   2.1328125e+01   2.1332031e+01   2.1335938e+01   2.1339844e+01   2.1343750e+01   2.1347656e+01   2.1351563e+01   2.1355469e+01   2.1359375e+01   2.1363281e+01   2.1367188e+01   2.1371094e+01   2.1375000e+01   2.1378906e+01   2.1382813e+01   2.1386719e+01   2.1390625e+01   2.1394531e+01   2.1398438e+01   2.1402344e+01   2.1406250e+01   2.1410156e+01   2.1414063e+01   2.1417969e+01   2.1421875e+01   2.1425781e+01   2.1429688e+01   2.1433594e+01   2.1437500e+01   2.1441406e+01   2.1445313e+01   2.1449219e+01   2.1453125e+01   2.1457031e+01   2.1460938e+01   2.1464844e+01   2.1468750e+01   2.1472656e+01   2.1476563e+01   2.1480469e+01   2.1484375e+01   2.1488281e+01   2.1492188e+01   2.1496094e+01   2.1500000e+01   2.1503906e+01   2.1507813e+01   2.1511719e+01   2.1515625e+01   2.1519531e+01   2.1523438e+01   2.1527344e+01   2.1531250e+01   2.1535156e+01   2.1539063e+01   2.1542969e+01   2.1546875e+01   2.1550781e+01   2.1554688e+01   2.1558594e+01   2.1562500e+01   2.1566406e+01   2.1570313e+01   2.1574219e+01   2.1578125e+01   2.1582031e+01   2.1585938e+01   2.1589844e+01   2.1593750e+01   2.1597656e+01   2.1601563e+01   2.1605469e+01   2.1609375e+01   2.1613281e+01   2.1617188e+01   2.1621094e+01   2.1625000e+01   2.1628906e+01   2.1632813e+01   2.1636719e+01   2.1640625e+01   2.1644531e+01   2.1648438e+01   2.1652344e+01   2.1656250e+01   2.1660156e+01   2.1664063e+01   2.1667969e+01   2.1671875e+01   2.1675781e+01   2.1679688e+01   2.1683594e+01   2.1687500e+01   2.1691406e+01   2.1695313e+01   2.1699219e+01   2.1703125e+01   2.1707031e+01   2.1710938e+01   2.1714844e+01   2.1718750e+01   2.1722656e+01   2.1726563e+01   2.1730469e+01   2.1734375e+01   2.1738281e+01   2.1742188e+01   2.1746094e+01   2.1750000e+01   2.1753906e+01   2.1757813e+01   2.1761719e+01   2.1765625e+01   2.1769531e+01   2.1773438e+01   2.1777344e+01   2.1781250e+01   2.1785156e+01   2.1789063e+01   2.1792969e+01   2.1796875e+01   2.1800781e+01   2.1804688e+01   2.1808594e+01   2.1812500e+01   2.1816406e+01   2.1820313e+01   2.1824219e+01   2.1828125e+01   2.1832031e+01   2.1835938e+01   2.1839844e+01   2.1843750e+01   2.1847656e+01   2.1851563e+01   2.1855469e+01   2.1859375e+01   2.1863281e+01   2.1867188e+01   2.1871094e+01   2.1875000e+01   2.1878906e+01   2.1882813e+01   2.1886719e+01   2.1890625e+01   2.1894531e+01   2.1898438e+01   2.1902344e+01   2.1906250e+01   2.1910156e+01   2.1914063e+01   2.1917969e+01   2.1921875e+01   2.1925781e+01   2.1929688e+01   2.1933594e+01   2.1937500e+01   2.1941406e+01   2.1945313e+01   2.1949219e+01   2.1953125e+01   2.1957031e+01   2.1960938e+01   2.1964844e+01   2.1968750e+01   2.1972656e+01   2.1976563e+01   2.1980469e+01   2.1984375e+01   2.1988281e+01   2.1992188e+01   2.1996094e+01   2.2000000e+01   2.2003906e+01   2.2007813e+01   2.2011719e+01   2.2015625e+01   2.2019531e+01   2.2023438e+01   2.2027344e+01   2.2031250e+01   2.2035156e+01   2.2039063e+01   2.2042969e+01   2.2046875e+01   2.2050781e+01   2.2054688e+01   2.2058594e+01   2.2062500e+01   2.2066406e+01   2.2070313e+01   2.2074219e+01   2.2078125e+01   2.2082031e+01   2.2085938e+01   2.2089844e+01   2.2093750e+01   2.2097656e+01   2.2101563e+01   2.2105469e+01   2.2109375e+01   2.2113281e+01   2.2117188e+01   2.2121094e+01   2.2125000e+01   2.2128906e+01   2.2132813e+01   2.2136719e+01   2.2140625e+01   2.2144531e+01   2.2148438e+01   2.2152344e+01   2.2156250e+01   2.2160156e+01   2.2164063e+01   2.2167969e+01   2.2171875e+01   2.2175781e+01   2.2179688e+01   2.2183594e+01   2.2187500e+01   2.2191406e+01   2.2195313e+01   2.2199219e+01   2.2203125e+01   2.2207031e+01   2.2210938e+01   2.2214844e+01   2.2218750e+01   2.2222656e+01   2.2226563e+01   2.2230469e+01   2.2234375e+01   2.2238281e+01   2.2242188e+01   2.2246094e+01   2.2250000e+01   2.2253906e+01   2.2257813e+01   2.2261719e+01   2.2265625e+01   2.2269531e+01   2.2273438e+01   2.2277344e+01   2.2281250e+01   2.2285156e+01   2.2289063e+01   2.2292969e+01   2.2296875e+01   2.2300781e+01   2.2304688e+01   2.2308594e+01   2.2312500e+01   2.2316406e+01   2.2320313e+01   2.2324219e+01   2.2328125e+01   2.2332031e+01   2.2335938e+01   2.2339844e+01   2.2343750e+01   2.2347656e+01   2.2351563e+01   2.2355469e+01   2.2359375e+01   2.2363281e+01   2.2367188e+01   2.2371094e+01   2.2375000e+01   2.2378906e+01   2.2382813e+01   2.2386719e+01   2.2390625e+01   2.2394531e+01   2.2398438e+01   2.2402344e+01   2.2406250e+01   2.2410156e+01   2.2414063e+01   2.2417969e+01   2.2421875e+01   2.2425781e+01   2.2429688e+01   2.2433594e+01   2.2437500e+01   2.2441406e+01   2.2445313e+01   2.2449219e+01   2.2453125e+01   2.2457031e+01   2.2460938e+01   2.2464844e+01   2.2468750e+01   2.2472656e+01   2.2476563e+01   2.2480469e+01   2.2484375e+01   2.2488281e+01   2.2492188e+01   2.2496094e+01   2.2500000e+01   2.2503906e+01   2.2507813e+01   2.2511719e+01   2.2515625e+01   2.2519531e+01   2.2523438e+01   2.2527344e+01   2.2531250e+01   2.2535156e+01   2.2539063e+01   2.2542969e+01   2.2546875e+01   2.2550781e+01   2.2554688e+01   2.2558594e+01   2.2562500e+01   2.2566406e+01   2.2570313e+01   2.2574219e+01   2.2578125e+01   2.2582031e+01   2.2585938e+01   2.2589844e+01   2.2593750e+01   2.2597656e+01   2.2601563e+01   2.2605469e+01   2.2609375e+01   2.2613281e+01   2.2617188e+01   2.2621094e+01   2.2625000e+01   2.2628906e+01   2.2632813e+01   2.2636719e+01   2.2640625e+01   2.2644531e+01   2.2648438e+01   2.2652344e+01   2.2656250e+01   2.2660156e+01   2.2664063e+01   2.2667969e+01   2.2671875e+01   2.2675781e+01   2.2679688e+01   2.2683594e+01   2.2687500e+01   2.2691406e+01   2.2695313e+01   2.2699219e+01   2.2703125e+01   2.2707031e+01   2.2710938e+01   2.2714844e+01   2.2718750e+01   2.2722656e+01   2.2726563e+01   2.2730469e+01   2.2734375e+01   2.2738281e+01   2.2742188e+01   2.2746094e+01   2.2750000e+01   2.2753906e+01   2.2757813e+01   2.2761719e+01   2.2765625e+01   2.2769531e+01   2.2773438e+01   2.2777344e+01   2.2781250e+01   2.2785156e+01   2.2789063e+01   2.2792969e+01   2.2796875e+01   2.2800781e+01   2.2804688e+01   2.2808594e+01   2.2812500e+01   2.2816406e+01   2.2820313e+01   2.2824219e+01   2.2828125e+01   2.2832031e+01   2.2835938e+01   2.2839844e+01   2.2843750e+01   2.2847656e+01   2.2851563e+01   2.2855469e+01   2.2859375e+01   2.2863281e+01   2.2867188e+01   2.2871094e+01   2.2875000e+01   2.2878906e+01   2.2882813e+01   2.2886719e+01   2.2890625e+01   2.2894531e+01   2.2898438e+01   2.2902344e+01   2.2906250e+01   2.2910156e+01   2.2914063e+01   2.2917969e+01   2.2921875e+01   2.2925781e+01   2.2929688e+01   2.2933594e+01   2.2937500e+01   2.2941406e+01   2.2945313e+01   2.2949219e+01   2.2953125e+01   2.2957031e+01   2.2960938e+01   2.2964844e+01   2.2968750e+01   2.2972656e+01   2.2976563e+01   2.2980469e+01   2.2984375e+01   2.2988281e+01   2.2992188e+01   2.2996094e+01   2.3000000e+01   2.3003906e+01   2.3007813e+01   2.3011719e+01   2.3015625e+01   2.3019531e+01   2.3023438e+01   2.3027344e+01   2.3031250e+01   2.3035156e+01   2.3039063e+01   2.3042969e+01   2.3046875e+01   2.3050781e+01   2.3054688e+01   2.3058594e+01   2.3062500e+01   2.3066406e+01   2.3070313e+01   2.3074219e+01   2.3078125e+01   2.3082031e+01   2.3085938e+01   2.3089844e+01   2.3093750e+01   2.3097656e+01   2.3101563e+01   2.3105469e+01   2.3109375e+01   2.3113281e+01   2.3117188e+01   2.3121094e+01   2.3125000e+01   2.3128906e+01   2.3132813e+01   2.3136719e+01   2.3140625e+01   2.3144531e+01   2.3148438e+01   2.3152344e+01   2.3156250e+01   2.3160156e+01   2.3164063e+01   2.3167969e+01   2.3171875e+01   2.3175781e+01   2.3179688e+01   2.3183594e+01   2.3187500e+01   2.3191406e+01   2.3195313e+01   2.3199219e+01   2.3203125e+01   2.3207031e+01   2.3210938e+01   2.3214844e+01   2.3218750e+01   2.3222656e+01   2.3226563e+01   2.3230469e+01   2.3234375e+01   2.3238281e+01   2.3242188e+01   2.3246094e+01   2.3250000e+01   2.3253906e+01   2.3257813e+01   2.3261719e+01   2.3265625e+01   2.3269531e+01   2.3273438e+01   2.3277344e+01   2.3281250e+01   2.3285156e+01   2.3289063e+01   2.3292969e+01   2.3296875e+01   2.3300781e+01   2.3304688e+01   2.3308594e+01   2.3312500e+01   2.3316406e+01   2.3320313e+01   2.3324219e+01   2.3328125e+01   2.3332031e+01   2.3335938e+01   2.3339844e+01   2.3343750e+01   2.3347656e+01   2.3351563e+01   2.3355469e+01   2.3359375e+01   2.3363281e+01   2.3367188e+01   2.3371094e+01   2.3375000e+01   2.3378906e+01   2.3382813e+01   2.3386719e+01   2.3390625e+01   2.3394531e+01   2.3398438e+01   2.3402344e+01   2.3406250e+01   2.3410156e+01   2.3414063e+01   2.3417969e+01   2.3421875e+01   2.3425781e+01   2.3429688e+01   2.3433594e+01   2.3437500e+01   2.3441406e+01   2.3445313e+01   2.3449219e+01   2.3453125e+01   2.3457031e+01   2.3460938e+01   2.3464844e+01   2.3468750e+01   2.3472656e+01   2.3476563e+01   2.3480469e+01   2.3484375e+01   2.3488281e+01   2.3492188e+01   2.3496094e+01   2.3500000e+01   2.3503906e+01   2.3507813e+01   2.3511719e+01   2.3515625e+01   2.3519531e+01   2.3523438e+01   2.3527344e+01   2.3531250e+01   2.3535156e+01   2.3539063e+01   2.3542969e+01   2.3546875e+01   2.3550781e+01   2.3554688e+01   2.3558594e+01   2.3562500e+01   2.3566406e+01   2.3570313e+01   2.3574219e+01   2.3578125e+01   2.3582031e+01   2.3585938e+01   2.3589844e+01   2.3593750e+01   2.3597656e+01   2.3601563e+01   2.3605469e+01   2.3609375e+01   2.3613281e+01   2.3617188e+01   2.3621094e+01   2.3625000e+01   2.3628906e+01   2.3632813e+01   2.3636719e+01   2.3640625e+01   2.3644531e+01   2.3648438e+01   2.3652344e+01   2.3656250e+01   2.3660156e+01   2.3664063e+01   2.3667969e+01   2.3671875e+01   2.3675781e+01   2.3679688e+01   2.3683594e+01   2.3687500e+01   2.3691406e+01   2.3695313e+01   2.3699219e+01   2.3703125e+01   2.3707031e+01   2.3710938e+01   2.3714844e+01   2.3718750e+01   2.3722656e+01   2.3726563e+01   2.3730469e+01   2.3734375e+01   2.3738281e+01   2.3742188e+01   2.3746094e+01   2.3750000e+01   2.3753906e+01   2.3757813e+01   2.3761719e+01   2.3765625e+01   2.3769531e+01   2.3773438e+01   2.3777344e+01   2.3781250e+01   2.3785156e+01   2.3789063e+01   2.3792969e+01   2.3796875e+01   2.3800781e+01   2.3804688e+01   2.3808594e+01   2.3812500e+01   2.3816406e+01   2.3820313e+01   2.3824219e+01   2.3828125e+01   2.3832031e+01   2.3835938e+01   2.3839844e+01   2.3843750e+01   2.3847656e+01   2.3851563e+01   2.3855469e+01   2.3859375e+01   2.3863281e+01   2.3867188e+01   2.3871094e+01   2.3875000e+01   2.3878906e+01   2.3882813e+01   2.3886719e+01   2.3890625e+01   2.3894531e+01   2.3898438e+01   2.3902344e+01   2.3906250e+01   2.3910156e+01   2.3914063e+01   2.3917969e+01   2.3921875e+01   2.3925781e+01   2.3929688e+01   2.3933594e+01   2.3937500e+01   2.3941406e+01   2.3945313e+01   2.3949219e+01   2.3953125e+01   2.3957031e+01   2.3960938e+01   2.3964844e+01   2.3968750e+01   2.3972656e+01   2.3976563e+01   2.3980469e+01   2.3984375e+01   2.3988281e+01   2.3992188e+01   2.3996094e+01   2.4000000e+01   2.4003906e+01   2.4007813e+01   2.4011719e+01   2.4015625e+01   2.4019531e+01   2.4023438e+01   2.4027344e+01   2.4031250e+01   2.4035156e+01   2.4039063e+01   2.4042969e+01   2.4046875e+01   2.4050781e+01   2.4054688e+01   2.4058594e+01   2.4062500e+01   2.4066406e+01   2.4070313e+01   2.4074219e+01   2.4078125e+01   2.4082031e+01   2.4085938e+01   2.4089844e+01   2.4093750e+01   2.4097656e+01   2.4101563e+01   2.4105469e+01   2.4109375e+01   2.4113281e+01   2.4117188e+01   2.4121094e+01   2.4125000e+01   2.4128906e+01   2.4132813e+01   2.4136719e+01   2.4140625e+01   2.4144531e+01   2.4148438e+01   2.4152344e+01   2.4156250e+01   2.4160156e+01   2.4164063e+01   2.4167969e+01   2.4171875e+01   2.4175781e+01   2.4179688e+01   2.4183594e+01   2.4187500e+01   2.4191406e+01   2.4195313e+01   2.4199219e+01   2.4203125e+01   2.4207031e+01   2.4210938e+01   2.4214844e+01   2.4218750e+01   2.4222656e+01   2.4226563e+01   2.4230469e+01   2.4234375e+01   2.4238281e+01   2.4242188e+01   2.4246094e+01   2.4250000e+01   2.4253906e+01   2.4257813e+01   2.4261719e+01   2.4265625e+01   2.4269531e+01   2.4273438e+01   2.4277344e+01   2.4281250e+01   2.4285156e+01   2.4289063e+01   2.4292969e+01   2.4296875e+01   2.4300781e+01   2.4304688e+01   2.4308594e+01   2.4312500e+01   2.4316406e+01   2.4320313e+01   2.4324219e+01   2.4328125e+01   2.4332031e+01   2.4335938e+01   2.4339844e+01   2.4343750e+01   2.4347656e+01   2.4351563e+01   2.4355469e+01   2.4359375e+01   2.4363281e+01   2.4367188e+01   2.4371094e+01   2.4375000e+01   2.4378906e+01   2.4382813e+01   2.4386719e+01   2.4390625e+01   2.4394531e+01   2.4398438e+01   2.4402344e+01   2.4406250e+01   2.4410156e+01   2.4414063e+01   2.4417969e+01   2.4421875e+01   2.4425781e+01   2.4429688e+01   2.4433594e+01   2.4437500e+01   2.4441406e+01   2.4445313e+01   2.4449219e+01   2.4453125e+01   2.4457031e+01   2.4460938e+01   2.4464844e+01   2.4468750e+01   2.4472656e+01   2.4476563e+01   2.4480469e+01   2.4484375e+01   2.4488281e+01   2.4492188e+01   2.4496094e+01   2.4500000e+01   2.4503906e+01   2.4507813e+01   2.4511719e+01   2.4515625e+01   2.4519531e+01   2.4523438e+01   2.4527344e+01   2.4531250e+01   2.4535156e+01   2.4539063e+01   2.4542969e+01   2.4546875e+01   2.4550781e+01   2.4554688e+01   2.4558594e+01   2.4562500e+01   2.4566406e+01   2.4570313e+01   2.4574219e+01   2.4578125e+01   2.4582031e+01   2.4585938e+01   2.4589844e+01   2.4593750e+01   2.4597656e+01   2.4601563e+01   2.4605469e+01   2.4609375e+01   2.4613281e+01   2.4617188e+01   2.4621094e+01   2.4625000e+01   2.4628906e+01   2.4632813e+01   2.4636719e+01   2.4640625e+01   2.4644531e+01   2.4648438e+01   2.4652344e+01   2.4656250e+01   2.4660156e+01   2.4664063e+01   2.4667969e+01   2.4671875e+01   2.4675781e+01   2.4679688e+01   2.4683594e+01   2.4687500e+01   2.4691406e+01   2.4695313e+01   2.4699219e+01   2.4703125e+01   2.4707031e+01   2.4710938e+01   2.4714844e+01   2.4718750e+01   2.4722656e+01   2.4726563e+01   2.4730469e+01   2.4734375e+01   2.4738281e+01   2.4742188e+01   2.4746094e+01   2.4750000e+01   2.4753906e+01   2.4757813e+01   2.4761719e+01   2.4765625e+01   2.4769531e+01   2.4773438e+01   2.4777344e+01   2.4781250e+01   2.4785156e+01   2.4789063e+01   2.4792969e+01   2.4796875e+01   2.4800781e+01   2.4804688e+01   2.4808594e+01   2.4812500e+01   2.4816406e+01   2.4820313e+01   2.4824219e+01   2.4828125e+01   2.4832031e+01   2.4835938e+01   2.4839844e+01   2.4843750e+01   2.4847656e+01   2.4851563e+01   2.4855469e+01   2.4859375e+01   2.4863281e+01   2.4867188e+01   2.4871094e+01   2.4875000e+01   2.4878906e+01   2.4882813e+01   2.4886719e+01   2.4890625e+01   2.4894531e+01   2.4898438e+01   2.4902344e+01   2.4906250e+01   2.4910156e+01   2.4914063e+01   2.4917969e+01   2.4921875e+01   2.4925781e+01   2.4929688e+01   2.4933594e+01   2.4937500e+01   2.4941406e+01   2.4945313e+01   2.4949219e+01   2.4953125e+01   2.4957031e+01   2.4960938e+01   2.4964844e+01   2.4968750e+01   2.4972656e+01   2.4976563e+01   2.4980469e+01   2.4984375e+01   2.4988281e+01   2.4992188e+01   2.4996094e+01   2.5000000e+01   2.5003906e+01   2.5007813e+01   2.5011719e+01   2.5015625e+01   2.5019531e+01   2.5023438e+01   2.5027344e+01   2.5031250e+01   2.5035156e+01   2.5039063e+01   2.5042969e+01   2.5046875e+01   2.5050781e+01   2.5054688e+01   2.5058594e+01   2.5062500e+01   2.5066406e+01   2.5070313e+01   2.5074219e+01   2.5078125e+01   2.5082031e+01   2.5085938e+01   2.5089844e+01   2.5093750e+01   2.5097656e+01   2.5101563e+01   2.5105469e+01   2.5109375e+01   2.5113281e+01   2.5117188e+01   2.5121094e+01   2.5125000e+01   2.5128906e+01   2.5132813e+01   2.5136719e+01   2.5140625e+01   2.5144531e+01   2.5148438e+01   2.5152344e+01   2.5156250e+01   2.5160156e+01   2.5164063e+01   2.5167969e+01   2.5171875e+01   2.5175781e+01   2.5179688e+01   2.5183594e+01   2.5187500e+01   2.5191406e+01   2.5195313e+01   2.5199219e+01   2.5203125e+01   2.5207031e+01   2.5210938e+01   2.5214844e+01   2.5218750e+01   2.5222656e+01   2.5226563e+01   2.5230469e+01   2.5234375e+01   2.5238281e+01   2.5242188e+01   2.5246094e+01   2.5250000e+01   2.5253906e+01   2.5257813e+01   2.5261719e+01   2.5265625e+01   2.5269531e+01   2.5273438e+01   2.5277344e+01   2.5281250e+01   2.5285156e+01   2.5289063e+01   2.5292969e+01   2.5296875e+01   2.5300781e+01   2.5304688e+01   2.5308594e+01   2.5312500e+01   2.5316406e+01   2.5320313e+01   2.5324219e+01   2.5328125e+01   2.5332031e+01   2.5335938e+01   2.5339844e+01   2.5343750e+01   2.5347656e+01   2.5351563e+01   2.5355469e+01   2.5359375e+01   2.5363281e+01   2.5367188e+01   2.5371094e+01   2.5375000e+01   2.5378906e+01   2.5382813e+01   2.5386719e+01   2.5390625e+01   2.5394531e+01   2.5398438e+01   2.5402344e+01   2.5406250e+01   2.5410156e+01   2.5414063e+01   2.5417969e+01   2.5421875e+01   2.5425781e+01   2.5429688e+01   2.5433594e+01   2.5437500e+01   2.5441406e+01   2.5445313e+01   2.5449219e+01   2.5453125e+01   2.5457031e+01   2.5460938e+01   2.5464844e+01   2.5468750e+01   2.5472656e+01   2.5476563e+01   2.5480469e+01   2.5484375e+01   2.5488281e+01   2.5492188e+01   2.5496094e+01   2.5500000e+01   2.5503906e+01   2.5507813e+01   2.5511719e+01   2.5515625e+01   2.5519531e+01   2.5523438e+01   2.5527344e+01   2.5531250e+01   2.5535156e+01   2.5539063e+01   2.5542969e+01   2.5546875e+01   2.5550781e+01   2.5554688e+01   2.5558594e+01   2.5562500e+01   2.5566406e+01   2.5570313e+01   2.5574219e+01   2.5578125e+01   2.5582031e+01   2.5585938e+01   2.5589844e+01   2.5593750e+01   2.5597656e+01   2.5601563e+01   2.5605469e+01   2.5609375e+01   2.5613281e+01   2.5617188e+01   2.5621094e+01   2.5625000e+01   2.5628906e+01   2.5632813e+01   2.5636719e+01   2.5640625e+01   2.5644531e+01   2.5648438e+01   2.5652344e+01   2.5656250e+01   2.5660156e+01   2.5664063e+01   2.5667969e+01   2.5671875e+01   2.5675781e+01   2.5679688e+01   2.5683594e+01   2.5687500e+01   2.5691406e+01   2.5695313e+01   2.5699219e+01   2.5703125e+01   2.5707031e+01   2.5710938e+01   2.5714844e+01   2.5718750e+01   2.5722656e+01   2.5726563e+01   2.5730469e+01   2.5734375e+01   2.5738281e+01   2.5742188e+01   2.5746094e+01   2.5750000e+01   2.5753906e+01   2.5757813e+01   2.5761719e+01   2.5765625e+01   2.5769531e+01   2.5773438e+01   2.5777344e+01   2.5781250e+01   2.5785156e+01   2.5789063e+01   2.5792969e+01   2.5796875e+01   2.5800781e+01   2.5804688e+01   2.5808594e+01   2.5812500e+01   2.5816406e+01   2.5820313e+01   2.5824219e+01   2.5828125e+01   2.5832031e+01   2.5835938e+01   2.5839844e+01   2.5843750e+01   2.5847656e+01   2.5851563e+01   2.5855469e+01   2.5859375e+01   2.5863281e+01   2.5867188e+01   2.5871094e+01   2.5875000e+01   2.5878906e+01   2.5882813e+01   2.5886719e+01   2.5890625e+01   2.5894531e+01   2.5898438e+01   2.5902344e+01   2.5906250e+01   2.5910156e+01   2.5914063e+01   2.5917969e+01   2.5921875e+01   2.5925781e+01   2.5929688e+01   2.5933594e+01   2.5937500e+01   2.5941406e+01   2.5945313e+01   2.5949219e+01   2.5953125e+01   2.5957031e+01   2.5960938e+01   2.5964844e+01   2.5968750e+01   2.5972656e+01   2.5976563e+01   2.5980469e+01   2.5984375e+01   2.5988281e+01   2.5992188e+01   2.5996094e+01   2.6000000e+01   2.6003906e+01   2.6007813e+01   2.6011719e+01   2.6015625e+01   2.6019531e+01   2.6023438e+01   2.6027344e+01   2.6031250e+01   2.6035156e+01   2.6039063e+01   2.6042969e+01   2.6046875e+01   2.6050781e+01   2.6054688e+01   2.6058594e+01   2.6062500e+01   2.6066406e+01   2.6070313e+01   2.6074219e+01   2.6078125e+01   2.6082031e+01   2.6085938e+01   2.6089844e+01   2.6093750e+01   2.6097656e+01   2.6101563e+01   2.6105469e+01   2.6109375e+01   2.6113281e+01   2.6117188e+01   2.6121094e+01   2.6125000e+01   2.6128906e+01   2.6132813e+01   2.6136719e+01   2.6140625e+01   2.6144531e+01   2.6148438e+01   2.6152344e+01   2.6156250e+01   2.6160156e+01   2.6164063e+01   2.6167969e+01   2.6171875e+01   2.6175781e+01   2.6179688e+01   2.6183594e+01   2.6187500e+01   2.6191406e+01   2.6195313e+01   2.6199219e+01   2.6203125e+01   2.6207031e+01   2.6210938e+01   2.6214844e+01   2.6218750e+01   2.6222656e+01   2.6226563e+01   2.6230469e+01   2.6234375e+01   2.6238281e+01   2.6242188e+01   2.6246094e+01   2.6250000e+01   2.6253906e+01   2.6257813e+01   2.6261719e+01   2.6265625e+01   2.6269531e+01   2.6273438e+01   2.6277344e+01   2.6281250e+01   2.6285156e+01   2.6289063e+01   2.6292969e+01   2.6296875e+01   2.6300781e+01   2.6304688e+01   2.6308594e+01   2.6312500e+01   2.6316406e+01   2.6320313e+01   2.6324219e+01   2.6328125e+01   2.6332031e+01   2.6335938e+01   2.6339844e+01   2.6343750e+01   2.6347656e+01   2.6351563e+01   2.6355469e+01   2.6359375e+01   2.6363281e+01   2.6367188e+01   2.6371094e+01   2.6375000e+01   2.6378906e+01   2.6382813e+01   2.6386719e+01   2.6390625e+01   2.6394531e+01   2.6398438e+01   2.6402344e+01   2.6406250e+01   2.6410156e+01   2.6414063e+01   2.6417969e+01   2.6421875e+01   2.6425781e+01   2.6429688e+01   2.6433594e+01   2.6437500e+01   2.6441406e+01   2.6445313e+01   2.6449219e+01   2.6453125e+01   2.6457031e+01   2.6460938e+01   2.6464844e+01   2.6468750e+01   2.6472656e+01   2.6476563e+01   2.6480469e+01   2.6484375e+01   2.6488281e+01   2.6492188e+01   2.6496094e+01   2.6500000e+01   2.6503906e+01   2.6507813e+01   2.6511719e+01   2.6515625e+01   2.6519531e+01   2.6523438e+01   2.6527344e+01   2.6531250e+01   2.6535156e+01   2.6539063e+01   2.6542969e+01   2.6546875e+01   2.6550781e+01   2.6554688e+01   2.6558594e+01   2.6562500e+01   2.6566406e+01   2.6570313e+01   2.6574219e+01   2.6578125e+01   2.6582031e+01   2.6585938e+01   2.6589844e+01   2.6593750e+01   2.6597656e+01   2.6601563e+01   2.6605469e+01   2.6609375e+01   2.6613281e+01   2.6617188e+01   2.6621094e+01   2.6625000e+01   2.6628906e+01   2.6632813e+01   2.6636719e+01   2.6640625e+01   2.6644531e+01   2.6648438e+01   2.6652344e+01   2.6656250e+01   2.6660156e+01   2.6664063e+01   2.6667969e+01   2.6671875e+01   2.6675781e+01   2.6679688e+01   2.6683594e+01   2.6687500e+01   2.6691406e+01   2.6695313e+01   2.6699219e+01   2.6703125e+01   2.6707031e+01   2.6710938e+01   2.6714844e+01   2.6718750e+01   2.6722656e+01   2.6726563e+01   2.6730469e+01   2.6734375e+01   2.6738281e+01   2.6742188e+01   2.6746094e+01   2.6750000e+01   2.6753906e+01   2.6757813e+01   2.6761719e+01   2.6765625e+01   2.6769531e+01   2.6773438e+01   2.6777344e+01   2.6781250e+01   2.6785156e+01   2.6789063e+01   2.6792969e+01   2.6796875e+01   2.6800781e+01   2.6804688e+01   2.6808594e+01   2.6812500e+01   2.6816406e+01   2.6820313e+01   2.6824219e+01   2.6828125e+01   2.6832031e+01   2.6835938e+01   2.6839844e+01   2.6843750e+01   2.6847656e+01   2.6851563e+01   2.6855469e+01   2.6859375e+01   2.6863281e+01   2.6867188e+01   2.6871094e+01   2.6875000e+01   2.6878906e+01   2.6882813e+01   2.6886719e+01   2.6890625e+01   2.6894531e+01   2.6898438e+01   2.6902344e+01   2.6906250e+01   2.6910156e+01   2.6914063e+01   2.6917969e+01   2.6921875e+01   2.6925781e+01   2.6929688e+01   2.6933594e+01   2.6937500e+01   2.6941406e+01   2.6945313e+01   2.6949219e+01   2.6953125e+01   2.6957031e+01   2.6960938e+01   2.6964844e+01   2.6968750e+01   2.6972656e+01   2.6976563e+01   2.6980469e+01   2.6984375e+01   2.6988281e+01   2.6992188e+01   2.6996094e+01   2.7000000e+01   2.7003906e+01   2.7007813e+01   2.7011719e+01   2.7015625e+01   2.7019531e+01   2.7023438e+01   2.7027344e+01   2.7031250e+01   2.7035156e+01   2.7039063e+01   2.7042969e+01   2.7046875e+01   2.7050781e+01   2.7054688e+01   2.7058594e+01   2.7062500e+01   2.7066406e+01   2.7070313e+01   2.7074219e+01   2.7078125e+01   2.7082031e+01   2.7085938e+01   2.7089844e+01   2.7093750e+01   2.7097656e+01   2.7101563e+01   2.7105469e+01   2.7109375e+01   2.7113281e+01   2.7117188e+01   2.7121094e+01   2.7125000e+01   2.7128906e+01   2.7132813e+01   2.7136719e+01   2.7140625e+01   2.7144531e+01   2.7148438e+01   2.7152344e+01   2.7156250e+01   2.7160156e+01   2.7164063e+01   2.7167969e+01   2.7171875e+01   2.7175781e+01   2.7179688e+01   2.7183594e+01   2.7187500e+01   2.7191406e+01   2.7195313e+01   2.7199219e+01   2.7203125e+01   2.7207031e+01   2.7210938e+01   2.7214844e+01   2.7218750e+01   2.7222656e+01   2.7226563e+01   2.7230469e+01   2.7234375e+01   2.7238281e+01   2.7242188e+01   2.7246094e+01   2.7250000e+01   2.7253906e+01   2.7257813e+01   2.7261719e+01   2.7265625e+01   2.7269531e+01   2.7273438e+01   2.7277344e+01   2.7281250e+01   2.7285156e+01   2.7289063e+01   2.7292969e+01   2.7296875e+01   2.7300781e+01   2.7304688e+01   2.7308594e+01   2.7312500e+01   2.7316406e+01   2.7320313e+01   2.7324219e+01   2.7328125e+01   2.7332031e+01   2.7335938e+01   2.7339844e+01   2.7343750e+01   2.7347656e+01   2.7351563e+01   2.7355469e+01   2.7359375e+01   2.7363281e+01   2.7367188e+01   2.7371094e+01   2.7375000e+01   2.7378906e+01   2.7382813e+01   2.7386719e+01   2.7390625e+01   2.7394531e+01   2.7398438e+01   2.7402344e+01   2.7406250e+01   2.7410156e+01   2.7414063e+01   2.7417969e+01   2.7421875e+01   2.7425781e+01   2.7429688e+01   2.7433594e+01   2.7437500e+01   2.7441406e+01   2.7445313e+01   2.7449219e+01   2.7453125e+01   2.7457031e+01   2.7460938e+01   2.7464844e+01   2.7468750e+01   2.7472656e+01   2.7476563e+01   2.7480469e+01   2.7484375e+01   2.7488281e+01   2.7492188e+01   2.7496094e+01   2.7500000e+01   2.7503906e+01   2.7507813e+01   2.7511719e+01   2.7515625e+01   2.7519531e+01   2.7523438e+01   2.7527344e+01   2.7531250e+01   2.7535156e+01   2.7539063e+01   2.7542969e+01   2.7546875e+01   2.7550781e+01   2.7554688e+01   2.7558594e+01   2.7562500e+01   2.7566406e+01   2.7570313e+01   2.7574219e+01   2.7578125e+01   2.7582031e+01   2.7585938e+01   2.7589844e+01   2.7593750e+01   2.7597656e+01   2.7601563e+01   2.7605469e+01   2.7609375e+01   2.7613281e+01   2.7617188e+01   2.7621094e+01   2.7625000e+01   2.7628906e+01   2.7632813e+01   2.7636719e+01   2.7640625e+01   2.7644531e+01   2.7648438e+01   2.7652344e+01   2.7656250e+01   2.7660156e+01   2.7664063e+01   2.7667969e+01   2.7671875e+01   2.7675781e+01   2.7679688e+01   2.7683594e+01   2.7687500e+01   2.7691406e+01   2.7695313e+01   2.7699219e+01   2.7703125e+01   2.7707031e+01   2.7710938e+01   2.7714844e+01   2.7718750e+01   2.7722656e+01   2.7726563e+01   2.7730469e+01   2.7734375e+01   2.7738281e+01   2.7742188e+01   2.7746094e+01   2.7750000e+01   2.7753906e+01   2.7757813e+01   2.7761719e+01   2.7765625e+01   2.7769531e+01   2.7773438e+01   2.7777344e+01   2.7781250e+01   2.7785156e+01   2.7789063e+01   2.7792969e+01   2.7796875e+01   2.7800781e+01   2.7804688e+01   2.7808594e+01   2.7812500e+01   2.7816406e+01   2.7820313e+01   2.7824219e+01   2.7828125e+01   2.7832031e+01   2.7835938e+01   2.7839844e+01   2.7843750e+01   2.7847656e+01   2.7851563e+01   2.7855469e+01   2.7859375e+01   2.7863281e+01   2.7867188e+01   2.7871094e+01   2.7875000e+01   2.7878906e+01   2.7882813e+01   2.7886719e+01   2.7890625e+01   2.7894531e+01   2.7898438e+01   2.7902344e+01   2.7906250e+01   2.7910156e+01   2.7914063e+01   2.7917969e+01   2.7921875e+01   2.7925781e+01   2.7929688e+01   2.7933594e+01   2.7937500e+01   2.7941406e+01   2.7945313e+01   2.7949219e+01   2.7953125e+01   2.7957031e+01   2.7960938e+01   2.7964844e+01   2.7968750e+01   2.7972656e+01   2.7976563e+01   2.7980469e+01   2.7984375e+01   2.7988281e+01   2.7992188e+01   2.7996094e+01   2.8000000e+01   2.8003906e+01   2.8007813e+01   2.8011719e+01   2.8015625e+01   2.8019531e+01   2.8023438e+01   2.8027344e+01   2.8031250e+01   2.8035156e+01   2.8039063e+01   2.8042969e+01   2.8046875e+01   2.8050781e+01   2.8054688e+01   2.8058594e+01   2.8062500e+01   2.8066406e+01   2.8070313e+01   2.8074219e+01   2.8078125e+01   2.8082031e+01   2.8085938e+01   2.8089844e+01   2.8093750e+01   2.8097656e+01   2.8101563e+01   2.8105469e+01   2.8109375e+01   2.8113281e+01   2.8117188e+01   2.8121094e+01   2.8125000e+01   2.8128906e+01   2.8132813e+01   2.8136719e+01   2.8140625e+01   2.8144531e+01   2.8148438e+01   2.8152344e+01   2.8156250e+01   2.8160156e+01   2.8164063e+01   2.8167969e+01   2.8171875e+01   2.8175781e+01   2.8179688e+01   2.8183594e+01   2.8187500e+01   2.8191406e+01   2.8195313e+01   2.8199219e+01   2.8203125e+01   2.8207031e+01   2.8210938e+01   2.8214844e+01   2.8218750e+01   2.8222656e+01   2.8226563e+01   2.8230469e+01   2.8234375e+01   2.8238281e+01   2.8242188e+01   2.8246094e+01   2.8250000e+01   2.8253906e+01   2.8257813e+01   2.8261719e+01   2.8265625e+01   2.8269531e+01   2.8273438e+01   2.8277344e+01   2.8281250e+01   2.8285156e+01   2.8289063e+01   2.8292969e+01   2.8296875e+01   2.8300781e+01   2.8304688e+01   2.8308594e+01   2.8312500e+01   2.8316406e+01   2.8320313e+01   2.8324219e+01   2.8328125e+01   2.8332031e+01   2.8335938e+01   2.8339844e+01   2.8343750e+01   2.8347656e+01   2.8351563e+01   2.8355469e+01   2.8359375e+01   2.8363281e+01   2.8367188e+01   2.8371094e+01   2.8375000e+01   2.8378906e+01   2.8382813e+01   2.8386719e+01   2.8390625e+01   2.8394531e+01   2.8398438e+01   2.8402344e+01   2.8406250e+01   2.8410156e+01   2.8414063e+01   2.8417969e+01   2.8421875e+01   2.8425781e+01   2.8429688e+01   2.8433594e+01   2.8437500e+01   2.8441406e+01   2.8445313e+01   2.8449219e+01   2.8453125e+01   2.8457031e+01   2.8460938e+01   2.8464844e+01   2.8468750e+01   2.8472656e+01   2.8476563e+01   2.8480469e+01   2.8484375e+01   2.8488281e+01   2.8492188e+01   2.8496094e+01   2.8500000e+01   2.8503906e+01   2.8507813e+01   2.8511719e+01   2.8515625e+01   2.8519531e+01   2.8523438e+01   2.8527344e+01   2.8531250e+01   2.8535156e+01   2.8539063e+01   2.8542969e+01   2.8546875e+01   2.8550781e+01   2.8554688e+01   2.8558594e+01   2.8562500e+01   2.8566406e+01   2.8570313e+01   2.8574219e+01   2.8578125e+01   2.8582031e+01   2.8585938e+01   2.8589844e+01   2.8593750e+01   2.8597656e+01   2.8601563e+01   2.8605469e+01   2.8609375e+01   2.8613281e+01   2.8617188e+01   2.8621094e+01   2.8625000e+01   2.8628906e+01   2.8632813e+01   2.8636719e+01   2.8640625e+01   2.8644531e+01   2.8648438e+01   2.8652344e+01   2.8656250e+01   2.8660156e+01   2.8664063e+01   2.8667969e+01   2.8671875e+01   2.8675781e+01   2.8679688e+01   2.8683594e+01   2.8687500e+01   2.8691406e+01   2.8695313e+01   2.8699219e+01   2.8703125e+01   2.8707031e+01   2.8710938e+01   2.8714844e+01   2.8718750e+01   2.8722656e+01   2.8726563e+01   2.8730469e+01   2.8734375e+01   2.8738281e+01   2.8742188e+01   2.8746094e+01   2.8750000e+01   2.8753906e+01   2.8757813e+01   2.8761719e+01   2.8765625e+01   2.8769531e+01   2.8773438e+01   2.8777344e+01   2.8781250e+01   2.8785156e+01   2.8789063e+01   2.8792969e+01   2.8796875e+01   2.8800781e+01   2.8804688e+01   2.8808594e+01   2.8812500e+01   2.8816406e+01   2.8820313e+01   2.8824219e+01   2.8828125e+01   2.8832031e+01   2.8835938e+01   2.8839844e+01   2.8843750e+01   2.8847656e+01   2.8851563e+01   2.8855469e+01   2.8859375e+01   2.8863281e+01   2.8867188e+01   2.8871094e+01   2.8875000e+01   2.8878906e+01   2.8882813e+01   2.8886719e+01   2.8890625e+01   2.8894531e+01   2.8898438e+01   2.8902344e+01   2.8906250e+01   2.8910156e+01   2.8914063e+01   2.8917969e+01   2.8921875e+01   2.8925781e+01   2.8929688e+01   2.8933594e+01   2.8937500e+01   2.8941406e+01   2.8945313e+01   2.8949219e+01   2.8953125e+01   2.8957031e+01   2.8960938e+01   2.8964844e+01   2.8968750e+01   2.8972656e+01   2.8976563e+01   2.8980469e+01   2.8984375e+01   2.8988281e+01   2.8992188e+01   2.8996094e+01   2.9000000e+01   2.9003906e+01   2.9007813e+01   2.9011719e+01   2.9015625e+01   2.9019531e+01   2.9023438e+01   2.9027344e+01   2.9031250e+01   2.9035156e+01   2.9039063e+01   2.9042969e+01   2.9046875e+01   2.9050781e+01   2.9054688e+01   2.9058594e+01   2.9062500e+01   2.9066406e+01   2.9070313e+01   2.9074219e+01   2.9078125e+01   2.9082031e+01   2.9085938e+01   2.9089844e+01   2.9093750e+01   2.9097656e+01   2.9101563e+01   2.9105469e+01   2.9109375e+01   2.9113281e+01   2.9117188e+01   2.9121094e+01   2.9125000e+01   2.9128906e+01   2.9132813e+01   2.9136719e+01   2.9140625e+01   2.9144531e+01   2.9148438e+01   2.9152344e+01   2.9156250e+01   2.9160156e+01   2.9164063e+01   2.9167969e+01   2.9171875e+01   2.9175781e+01   2.9179688e+01   2.9183594e+01   2.9187500e+01   2.9191406e+01   2.9195313e+01   2.9199219e+01   2.9203125e+01   2.9207031e+01   2.9210938e+01   2.9214844e+01   2.9218750e+01   2.9222656e+01   2.9226563e+01   2.9230469e+01   2.9234375e+01   2.9238281e+01   2.9242188e+01   2.9246094e+01   2.9250000e+01   2.9253906e+01   2.9257813e+01   2.9261719e+01   2.9265625e+01   2.9269531e+01   2.9273438e+01   2.9277344e+01   2.9281250e+01   2.9285156e+01   2.9289063e+01   2.9292969e+01   2.9296875e+01   2.9300781e+01   2.9304688e+01   2.9308594e+01   2.9312500e+01   2.9316406e+01   